# ASI test file format
# {"c261c5a084f8c6b6":{"device ID": "c261c5a084f8c6b6","comments": " 5 minutes  in supine decubitus position","keywords": "HRV, Rest","firmware version": "0.6.3","device": "FieldWiz + T-shirt version 2","sampling rate": 250,"resolution": [16-bit],"date":"2020-04-11","column": ["ECG", "A1"],"sensor": ["RAW, ECG"],"label": ["ECG"]}
}
# EndOfHeader

-32
363
990
1492
1709
1808
1853
1874
1890
1891
1891
1892
1891
1893
1894
1894
1896
1895
1892
1895
1894
1893
1887
1891
1890
1890
1889
1892
1892
1889
1891
1893
1877
1783
1653
1518
1389
1269
1160
1061
967
883
803
732
666
606
559
523
500
484
472
461
454
445
438
437
429
424
418
411
406
401
397
391
387
380
371
372
354
335
311
286
257
236
212
190
169
153
135
122
108
97
87
77
67
61
53
46
38
37
32
32
32
28
28
27
28
27
26
28
28
29
26
27
26
27
27
23
26
25
26
24
21
22
18
15
15
13
10
7
7
4
3
1
1
4
-1
-2
-4
-3
-3
-4
-2
-6
-7
-4
-5
-6
-6
-5
-7
-5
-5
-4
-5
-5
-8
-7
-4
-7
-5
-3
-2
-4
-4
-5
0
-5
-4
-4
-8
-6
-9
-7
-6
-6
-8
-9
-5
-8
-8
-7
-10
-9
-9
-10
-11
-9
-8
-8
-12
-10
-10
-9
-9
-9
-10
-10
-8
-10
-9
-10
-10
-10
-8
-13
-9
-10
-10
-9
-11
-8
-9
-8
-10
-9
-10
-13
-9
-11
-11
-12
-11
-13
-10
-13
-10
-8
-10
-10
-9
-12
-8
-9
-9
-10
-11
-9
-10
-11
-9
-11
-8
-8
-8
-9
-8
-8
-9
-11
-11
-13
-11
-10
-11
-9
-12
-13
-11
-10
-11
-13
-13
-8
-11
-12
-11
-10
-12
-12
-13
-12
-11
-10
-13
-11
-8
-11
-11
-10
-17
-11
-10
-10
-11
-12
-13
-13
-12
-13
-11
-11
-13
-12
-9
-11
-10
-12
-13
-12
-13
-13
-11
-8
-11
-11
-13
-10
-11
-10
-12
-13
-12
-13
-13
-10
-11
-13
-12
-9
-11
-11
-12
-13
-15
-11
-13
-12
-12
-13
-11
-12
-12
-15
-15
-10
-12
-14
-13
-13
-14
-12
-12
-10
-12
-12
-13
-12
-13
-10
-13
-11
-8
-11
-12
-13
-10
-11
-12
-15
-13
-12
-14
-13
-11
-17
-13
-15
-12
-13
-11
-12
-10
-11
-13
-12
-10
-12
-12
-10
-11
-13
-13
-13
-11
-12
-11
-14
-13
-10
-13
-9
-13
-13
-11
-12
-12
-13
-12
-11
-12
-13
-9
-14
-9
-12
-10
-13
-14
-11
-8
-11
-8
-13
-11
-12
-14
-11
-12
-11
-12
-13
-12
-10
-12
-13
-12
-13
-13
-17
-13
-13
-13
-13
-12
-11
-13
-14
-13
-12
-13
-13
-13
-13
-13
-11
-13
-12
-12
-12
-13
-11
-11
-13
-10
-12
-12
-13
-12
-11
-13
-13
-12
-12
-14
-12
-12
-14
-14
-12
-12
-13
-13
-13
-15
-14
-14
-14
-14
-13
-13
-14
-11
-13
-10
-13
-13
-12
-13
-13
-13
-12
-12
-12
-12
-12
-13
-13
-11
-13
-11
-15
-13
-12
-11
-12
-13
-10
-13
-13
-12
-12
-12
-13
-12
-13
-14
-13
-12
-14
-13
-13
-12
-13
-13
-13
-12
-11
-13
-11
-11
-12
-12
-11
-13
-12
-11
-13
-13
-13
-13
-13
-13
-11
-13
-11
-12
-11
-14
-12
-11
-12
-14
-12
-13
-15
-11
-17
-15
-13
-13
-15
-14
-13
-12
-13
-14
-15
-15
-12
-12
-10
-12
-14
-14
-12
-14
-13
-11
-15
-14
-12
-13
-13
-13
-15
-12
-15
-14
-10
-15
-10
-11
-14
-15
-11
-14
-12
-15
-15
-14
-13
-14
-14
-12
-13
-15
-14
-12
-13
-14
-17
-16
-12
-13
-11
-14
-12
-10
-12
-13
-12
-12
-13
-13
-12
-13
-13
-14
-12
-8
-14
-11
-11
-13
-15
-14
-12
-12
-13
-12
-14
-14
-14
-13
-14
-14
-13
-14
-14
-14
-14
-12
-12
-15
-14
-13
-12
-13
-11
-12
-13
-10
-13
-13
-12
-13
-13
-12
-12
-10
-9
-11
-11
-11
-8
-11
-13
-11
-13
-12
-13
-11
-12
-13
-12
-13
-15
-13
-15
-13
-12
-12
-15
-13
-13
-12
-15
-15
-12
-11
-12
-12
-12
-14
-12
-13
-13
-11
-10
-13
-14
-12
-13
-13
-12
-11
-12
-15
-14
-12
-11
-14
-13
-14
-10
-10
-12
-14
-14
-13
-13
-15
-15
-12
-16
-12
-13
-13
-13
-15
-12
-13
-12
-16
-13
-13
-12
-15
-10
-13
-11
-12
-12
-13
-13
-11
-13
-12
-12
-13
-10
-12
-10
-14
-15
-13
-13
-12
-17
-12
-13
-12
-14
-14
-14
-13
-15
-14
-15
-13
-15
-13
-14
-12
-14
-13
-17
-15
-12
-10
-15
-13
-12
-12
-12
-11
-12
-15
-12
-12
-11
-14
-11
-13
-12
-13
-10
-13
-11
-13
-12
-14
-13
-12
-15
-13
-15
-15
-13
-12
-14
-15
-13
-15
-13
-14
-12
-13
-13
-13
-15
-11
-12
-14
-15
-12
-13
-12
-10
-13
-13
-11
-12
-12
-11
-12
-12
-12
-13
-12
-11
-11
-12
-14
-14
-11
-12
-13
-16
-15
-13
-15
-13
-12
-13
-14
-17
-14
-11
-13
-15
-12
-13
-15
-12
-14
-12
-14
-10
-13
-12
-15
-15
-10
-11
-12
-15
-13
-11
-13
-13
-13
-12
-12
-12
-11
-12
-13
-14
-12
-12
-14
-14
-13
-14
-12
-10
-15
-13
-11
-13
-15
-14
-12
-12
-14
-13
-13
-13
-12
-12
-12
-10
-13
-10
-14
-12
-11
-11
-12
-12
-15
-10
-10
-9
-11
-12
-13
-15
-13
-13
-14
-12
-12
-12
-14
-14
-14
-15
-14
-12
-13
-12
-13
-11
-12
-12
-14
-11
-14
-12
-12
-12
-14
-11
-11
-11
-10
-14
-13
-13
-13
-13
-12
-12
-13
-12
-13
-11
-11
-11
-12
-11
-11
-12
-11
-15
-12
-13
-13
-15
-12
-11
-15
-15
-14
-14
-13
-15
-15
-14
-14
-15
-13
-15
-14
-14
-12
-15
-12
-10
-12
-11
-10
-12
-13
-13
-13
-12
-11
-12
-11
-11
-13
-11
-12
-14
-11
-12
-12
-12
-16
-12
-14
-12
-13
-12
-12
-12
-12
-12
-12
-13
-13
-13
-11
-12
-13
-14
-15
-13
-12
-13
-13
-12
-12
-12
-14
-13
-13
-11
-11
-15
-12
-12
-10
-12
-17
-11
-10
-12
-13
-14
-13
-12
-15
-12
-15
-15
-13
-14
-11
-14
-14
-12
-14
-14
-15
-11
-14
-17
-15
-12
-15
-12
-13
-13
-13
-12
-13
-12
-14
-14
-12
-13
-13
-13
-13
-13
-10
-11
-10
-12
-13
-13
-14
-14
-13
-13
-14
-12
-12
-14
-13
-12
-12
-12
-13
-15
-15
-15
-15
-12
-13
-12
-12
-14
-15
-12
-14
-12
-15
-13
-12
-13
-14
-12
-11
-13
-12
-17
-13
-13
-14
-11
-11
-12
-11
-12
-13
-13
-13
-12
-14
-11
-13
-15
-15
-12
-14
-11
-14
-13
-12
-13
-15
-13
-14
-13
-14
-17
-14
-13
-11
-14
-13
-11
-13
-12
-10
-13
-13
-12
-12
-10
-11
-12
-13
-12
-14
-13
-11
-12
-15
-14
-14
-13
-13
-10
-12
-15
-10
-11
-13
-14
-13
-12
-12
-13
-14
-15
-12
-12
-12
-13
-11
-15
-12
-13
-13
-13
-13
-13
-14
-13
-12
-11
-10
-10
-12
-13
-11
-10
-13
-11
-12
-12
-14
-12
-11
-12
-12
-12
-12
-13
-13
-13
-13
-13
-13
-11
-11
-13
-13
-9
-12
-12
-12
-14
-15
-11
-11
-15
-11
-12
-13
-12
-12
-12
-13
-12
-10
-13
-15
-11
-11
-10
-11
-12
-11
-12
-10
-12
-13
-12
-13
-11
-12
-11
-13
-12
-12
-14
-14
-14
-13
-13
-15
-14
-13
-12
-13
-12
-14
-11
-14
-12
-12
-10
-13
-10
-12
-12
-13
-14
-10
-8
-13
-12
-10
-12
-14
-11
-11
-12
-12
-12
-12
-12
-12
-13
-12
-13
-12
-14
-13
-14
-11
-15
-15
-14
-12
-12
-15
-14
-15
-12
-13
-13
-14
-12
-13
-11
-13
-12
-13
-10
-8
-10
-13
-12
-14
-10
-12
-11
-10
-13
-10
-13
-11
-12
-10
-10
-14
-13
-11
-13
-12
-14
-13
-15
-12
-14
-14
-15
-14
-14
-15
-14
-14
-13
-12
-15
-13
-13
-13
-15
-13
-12
-14
-11
-11
-12
-11
-10
-13
-10
-14
-10
-12
-12
-12
-13
-14
-12
-12
-12
-13
-12
-14
-14
-15
-13
-10
-15
-14
-13
-13
-15
-15
-14
-13
-14
-15
-13
-13
-13
-14
-15
-12
-13
-10
-13
-11
-12
-10
-10
-12
-10
-11
-10
-9
-10
-8
-13
-10
-12
-13
-11
-12
-13
-12
-13
-13
-11
-14
-14
-12
-17
-13
-13
-12
-11
-13
-13
-13
-17
-13
-13
-14
-12
-14
-11
-17
-13
-10
-11
-13
-13
-13
-12
-11
-12
-10
-9
-12
-10
-13
-13
-13
-10
-11
-13
-10
-15
-13
-17
-12
-12
-13
-12
-12
-17
-11
-12
-11
-17
-15
-13
-14
-13
-13
-15
-12
-11
-14
-13
-12
-13
-12
-13
-13
-9
-12
-11
-12
-13
-13
-15
-12
-12
-11
-10
-10
-11
-13
-12
-11
-12
-12
-12
-13
-13
-13
-12
-15
-11
-15
-12
-15
-13
-14
-14
-14
-14
-12
-13
-15
-13
-13
-10
-12
-11
-13
-10
-13
-11
-8
-12
-12
-15
-12
-14
-13
-13
-12
-12
-10
-12
-11
-12
-13
-13
-15
-14
-14
-13
-15
-12
-13
-12
-12
-16
-13
-9
-15
-13
-12
-14
-13
-15
-13
-11
-13
-13
-14
-13
-12
-15
-14
-13
-11
-8
-12
-11
-13
-12
-11
-13
-12
-12
-11
-14
-12
-11
-12
-14
-13
-16
-24
-30
-35
-52
-82
-101
-96
-93
-107
-125
-127
-128
-131
-131
-133
-134
-132
-127
-96
-75
-59
-37
-27
-41
-62
-90
-97
-93
-98
-119
-125
-130
-114
-100
-99
-107
-108
-105
-112
-123
-128
-133
-135
-135
-134
-134
-135
-135
-136
-136
-137
-137
-137
-138
-138
-137
-134
-138
-137
-137
-137
-136
-136
-137
-136
-136
-139
-138
-138
-137
-139
-136
-136
-141
-139
-135
-137
-138
-141
-139
-136
-138
-137
-141
-138
-139
-138
-141
-139
-140
-141
-140
-141
-138
-138
-140
-141
-138
-143
-141
-141
-138
-140
-141
-140
-141
-139
-141
-143
-142
-141
-139
-139
-138
-138
-141
-139
-141
-141
-139
-143
-140
-141
-142
-143
-142
-142
-142
-145
-141
-142
-141
-141
-141
-140
-140
-141
-142
-143
-144
-143
-140
-141
-144
-143
-143
-141
-145
-144
-141
-145
-143
-144
-144
-144
-144
-145
-147
-146
-144
-145
-144
-149
-142
-140
-143
-145
-144
-144
-141
-143
-147
-146
-147
-142
-143
-145
-146
-145
-149
-148
-148
-142
-142
-147
-143
-149
-147
-144
-149
-149
-144
-142
-142
-148
-147
-146
-144
-144
-148
-147
-144
-148
-150
-144
-143
-144
-149
-147
-152
-149
-144
-147
-151
-149
-144
-146
-150
-148
-147
-148
-149
-147
-147
-149
-153
-144
-146
-150
-150
-150
-151
-147
-149
-152
-152
-147
-149
-153
-153
-148
-150
-153
-151
-147
-152
-148
-148
-148
-152
-153
-149
-146
-152
-151
-148
-148
-148
-154
-152
-151
-152
-152
-149
-154
-154
-151
-153
-151
-151
-153
-152
-154
-153
-150
-152
-154
-149
-153
-153
-154
-153
-153
-153
-152
-152
-151
-152
-154
-150
-153
-153
-150
-153
-152
-156
-156
-151
-151
-154
-157
-156
-155
-156
-157
-153
-153
-150
-151
-155
-155
-153
-155
-156
-155
-151
-155
-154
-154
-154
-153
-157
-155
-155
-154
-152
-155
-155
-155
-157
-154
-155
-152
-154
-155
-156
-154
-155
-157
-158
-154
-155
-157
-156
-160
-155
-157
-155
-156
-156
-154
-156
-157
-158
-156
-157
-157
-157
-156
-161
-153
-125
-87
-67
-50
-34
-21
-13
-9
-5
4
5
4
4
5
4
5
3
6
3
4
5
4
3
4
2
3
5
0
-2
3
-1
-1
-3
-5
-5
-6
-2
-4
-6
-4
-4
-6
-9
-6
-5
-9
-16
-26
-31
-24
-17
-13
-10
-9
-12
-8
-9
-10
-11
-9
-8
-9
-6
-8
-11
-8
-10
-8
-8
-9
-8
-11
-6
-8
-11
-5
-10
-12
-9
-13
-9
-4
-13
-11
-10
-10
-13
-8
-11
-9
-6
-23
-36
-37
-27
-19
-17
-14
-12
-10
-11
-12
-11
-12
-12
-11
-7
-13
-11
-9
-7
-10
-13
-8
-12
-10
-11
-12
-9
-11
-10
-4
-11
-13
-8
-8
-13
-10
-10
-10
-10
-7
-13
-17
-11
-11
-34
-40
-36
-24
-18
-14
-12
-10
-7
-9
-7
-7
-10
-11
-6
-8
-12
-11
-10
-9
-9
-8
-9
-8
-6
-11
-13
-13
-9
-5
-10
-13
-10
-11
-7
-8
-6
-11
-12
-9
-6
-11
-12
-7
-11
-33
-42
-43
-31
-22
-16
-13
-11
-13
-8
-7
-7
-12
-12
-9
-8
-10
-6
-11
-8
-8
-9
-13
-8
-8
-10
-11
-9
-11
-10
-6
-12
-13
-7
-7
-7
-12
-8
-11
-8
-6
-11
-7
-13
-10
-26
-48
-45
-37
-25
-20
-14
-12
-9
-8
-10
-9
-9
-9
-7
-7
-10
-10
-9
-9
-6
-9
-15
-9
-6
-10
-9
-8
-7
-8
-10
-8
-11
-8
-11
-7
-13
-11
-12
-10
-10
-8
-11
-9
-8
-23
-52
-52
-42
-32
-20
-19
-15
-9
-9
-9
-7
-8
-6
-6
-7
-8
-8
-8
-6
-8
-11
-8
-5
-8
-5
-8
-11
-7
-6
-9
-13
-10
-9
-7
-11
-9
-7
-11
-13
-6
-11
-13
-6
-8
-14
-44
-52
-42
-32
-24
-18
-15
-13
-8
-9
-9
-10
-8
-6
-8
-6
-7
-8
-5
-4
-8
-8
-10
-9
-11
-5
-12
-5
-7
-4
-12
-10
-11
-9
-8
-8
-11
-9
-5
-10
-9
-6
-13
-5
-11
-36
-56
-50
-38
-29
-20
-16
-12
-10
-8
-8
-9
-6
-8
-7
-7
-8
-6
-7
-9
-5
-7
-7
-4
-9
-10
-13
-7
-6
-6
-9
-6
-5
-2
-2
-7
-6
-6
-8
-6
-7
-13
-8
-11
-7
-23
-58
-60
-50
-36
-29
-19
-17
-8
-9
-9
-5
-9
-9
-7
-6
-4
-5
-9
-7
-6
-8
-5
-9
-5
-6
-7
-8
-9
-3
-12
-9
-11
-3
-9
-9
-9
-4
-7
-6
-7
-11
-8
-10
-7
-12
-39
-80
-90
-71
-53
-40
-25
-16
-11
-8
-8
-7
-5
-4
-5
-6
0
-4
-4
-4
-6
-5
-5
-3
-8
-4
-6
-3
-3
-8
-6
-6
-4
-3
-8
-7
-4
-9
-7
-5
-8
-10
-8
-10
-9
-13
-20
-46
-86
-99
-77
-54
-35
-24
-15
-11
-9
-4
-4
-4
-5
-5
-3
-2
-5
-4
-5
-5
0
-5
-3
-4
-4
0
-7
-5
-5
-8
0
-9
-8
-6
-6
-5
-10
-9
-3
-6
-9
-11
-9
-10
-7
-19
-58
-76
-66
-48
-32
-23
-15
-13
-9
-5
-5
-5
-9
-4
-4
-4
-9
-7
-7
-5
-5
-7
-7
-7
-4
-4
-6
-7
-4
-7
-8
-8
-6
-8
-4
-6
-8
-10
-9
-4
-7
-10
-7
-7
-9
-23
-57
-104
-105
-81
-59
-39
-25
-16
-9
-7
-7
-5
-5
-4
-2
-1
-4
-5
-2
-5
-7
-7
-2
-1
-4
-6
-4
-6
-4
-6
-6
-8
-5
-2
-10
-7
-9
-8
-4
-5
-10
-6
-6
-9
-7
-11
-26
-57
-96
-108
-89
-64
-41
-25
-17
-10
-6
-2
1
1
-2
-3
-3
-3
1
-6
-3
-4
-2
-3
-5
-7
-2
-3
-7
-6
-5
-3
-3
-6
-4
-7
-5
-9
-3
-9
-5
-10
-4
-8
-7
-5
-7
-16
-44
-93
-102
-84
-59
-41
-27
-17
-10
-8
-4
-7
-4
-3
-4
-4
-4
-5
-4
-3
-4
-4
-5
0
-8
-2
-7
-7
-7
0
-10
-6
-7
-8
-4
-7
-4
-9
-4
-9
-6
-8
-6
-7
-2
-7
-22
-53
-86
-125
-143
-120
-87
-56
-35
-19
-13
-7
-4
-5
-3
-5
-2
-1
1
0
-2
-3
0
-2
-2
-4
-2
0
2
0
0
-5
-6
-5
-9
-9
-9
-4
-1
-6
-4
-9
-9
-7
-7
-5
-10
-8
-13
-33
-76
-128
-171
-156
-119
-75
-50
-28
-13
-9
-4
0
-1
0
1
-2
2
3
5
-2
-1
1
2
5
0
-1
4
4
3
-4
-1
-6
-4
-5
-6
-7
-3
-7
-9
-8
-11
-5
-6
-3
-6
-7
-6
-14
-30
-61
-112
-145
-128
-93
-61
-37
-23
-12
-6
-3
-3
-3
4
1
2
0
-3
1
1
-3
-2
-2
1
-2
-2
0
0
2
1
0
-4
-6
-4
-6
-8
-9
-8
-5
-4
-5
-8
-8
-6
-6
-9
-9
-29
-53
-80
-119
-158
-142
-108
-72
-47
-29
-17
-11
-2
0
4
2
6
5
5
5
1
-1
5
0
2
0
0
1
-3
-2
-5
1
4
1
-3
-2
-1
-7
-5
-9
-8
-5
-4
-9
-8
-6
-7
-5
-12
-26
-55
-87
-121
-158
-164
-126
-88
-53
-33
-22
-11
-6
-2
2
4
3
3
5
3
3
2
4
5
4
3
3
2
5
3
-1
-3
-2
1
0
-5
-3
-4
-1
-7
-7
-7
-5
-3
-9
-9
-3
-6
-4
-17
-36
-75
-113
-145
-177
-169
-127
-84
-48
-32
-18
-9
-1
4
1
3
2
8
6
6
4
2
4
4
3
4
3
4
3
1
-2
-2
1
1
1
-2
-6
-2
-4
-5
-5
-5
-4
-4
-2
-7
-7
-7
-6
-13
-45
-80
-116
-148
-180
-184
-145
-98
-58
-33
-21
-11
-4
4
-1
3
6
5
6
6
7
7
6
5
6
5
2
2
5
2
5
3
4
3
4
-4
-5
-4
-2
-3
-5
-2
-3
-5
-7
-2
-6
-5
-5
-15
-36
-67
-103
-130
-165
-198
-178
-130
-84
-49
-29
-16
-6
-1
5
4
5
7
6
7
5
1
6
7
4
5
5
10
5
3
1
3
2
2
1
-2
-2
3
-2
-2
-2
-5
-5
-2
-4
-7
-7
-3
-5
-5
-16
-43
-65
-83
-111
-151
-193
-180
-132
-87
-53
-30
-16
-3
0
8
8
9
10
7
5
4
9
6
3
4
5
3
5
4
3
5
6
6
5
4
0
3
0
-4
-3
-3
-7
-1
-5
-3
-2
-1
-1
-7
-8
-13
-22
-33
-55
-89
-127
-161
-191
-209
-220
-174
-115
-70
-42
-21
-9
3
5
5
10
10
11
12
10
7
11
9
10
10
9
9
10
12
9
4
6
8
3
6
3
-2
6
1
-5
1
-4
-1
-5
0
-1
-3
-3
0
-8
-27
-57
-84
-102
-127
-161
-199
-217
-225
-231
-193
-141
-85
-48
-23
-9
3
9
14
13
14
14
16
15
15
15
13
11
15
12
11
14
12
17
10
10
10
8
5
6
0
3
8
-1
4
-3
-2
-3
-5
-1
-3
-5
-2
-5
-14
-43
-76
-108
-126
-153
-183
-213
-226
-228
-234
-201
-139
-80
-44
-18
-6
6
13
15
17
18
16
18
18
17
18
16
18
17
17
15
19
16
17
15
15
9
10
6
7
3
5
3
4
3
0
0
2
-2
-2
-3
-4
0
-5
-15
-41
-74
-99
-122
-144
-177
-205
-224
-230
-234
-221
-167
-104
-60
-26
-9
2
10
13
15
16
18
19
21
17
19
17
19
18
16
20
16
16
15
14
10
12
9
12
8
8
10
8
6
4
0
1
-2
-6
0
1
-7
1
1
-9
-21
-45
-68
-83
-105
-135
-177
-206
-222
-236
-238
-203
-141
-87
-47
-19
-7
5
12
15
15
18
16
17
17
17
16
15
14
15
15
18
16
18
17
13
10
11
7
7
6
6
6
3
3
-3
2
-1
-3
0
-5
-4
-4
-2
-6
-15
-39
-58
-74
-92
-117
-145
-171
-187
-201
-225
-236
-240
-243
-242
-239
-183
-104
-63
-28
-9
8
17
22
27
27
24
25
28
28
23
24
27
28
25
24
24
22
24
23
22
16
16
17
11
10
11
8
8
4
3
-1
4
1
0
0
2
0
1
-7
-27
-51
-68
-84
-103
-125
-156
-177
-191
-201
-224
-236
-244
-248
-249
-240
-191
-125
-69
-35
-9
9
17
23
25
27
26
28
29
29
27
29
27
28
27
28
30
29
26
24
22
22
19
14
12
12
8
8
10
8
5
3
1
2
1
3
-3
1
-1
-6
-22
-49
-72
-85
-98
-119
-145
-161
-174
-187
-204
-230
-242
-247
-251
-253
-241
-185
-117
-64
-29
-5
13
22
25
26
29
31
29
31
31
27
29
27
32
27
28
30
25
27
26
20
22
20
16
14
16
13
8
8
7
4
3
5
6
-2
-3
1
0
-5
-7
-23
-34
-41
-52
-68
-97
-114
-129
-139
-155
-175
-191
-199
-210
-233
-237
-189
-124
-72
-37
-12
8
17
20
24
24
26
24
23
23
22
23
23
21
21
19
22
24
19
18
19
13
16
14
12
7
8
10
6
4
3
2
9
-1
0
4
0
-2
0
0
-16
-25
-32
-41
-59
-81
-100
-114
-123
-143
-167
-182
-192
-198
-216
-236
-247
-254
-255
-259
-258
-257
-260
-256
-242
-176
-101
-50
-13
12
24
36
40
45
43
49
45
46
42
43
40
42
43
41
40
35
39
40
33
32
28
27
27
22
18
17
18
14
16
9
3
7
6
5
4
4
1
0
-5
-21
-43
-65
-70
-80
-95
-119
-136
-145
-148
-165
-185
-199
-210
-216
-228
-242
-255
-256
-260
-260
-261
-260
-260
-260
-265
-218
-142
-75
-29
5
27
40
49
50
56
52
53
53
53
50
51
52
51
49
47
50
46
48
42
40
38
37
31
31
23
20
19
24
20
13
15
10
12
9
3
7
5
4
-1
-9
-24
-44
-52
-59
-77
-96
-113
-119
-128
-145
-162
-177
-174
-182
-194
-209
-221
-226
-231
-240
-254
-261
-263
-265
-264
-268
-268
-264
-266
-266
-238
-159
-84
-29
9
34
46
56
59
57
61
59
60
61
58
59
59
59
57
55
52
54
57
54
50
46
42
39
38
32
29
23
25
20
16
16
16
13
15
12
8
8
7
8
-4
-19
-39
-56
-78
-109
-150
-177
-190
-191
-193
-184
-166
-151
-136
-136
-149
-165
-168
-175
-191
-207
-221
-222
-229
-237
-253
-264
-264
-266
-268
-265
-269
-269
-268
-271
-271
-270
-273
-270
-256
-190
-104
-37
13
43
59
72
77
80
81
85
82
83
83
81
80
79
79
80
80
74
76
76
67
64
56
53
51
44
39
36
35
33
26
24
22
22
18
15
15
12
9
12
8
-6
-27
-41
-44
-50
-58
-75
-84
-87
-87
-96
-110
-121
-123
-121
-131
-142
-153
-157
-154
-164
-178
-189
-188
-187
-194
-207
-217
-217
-216
-221
-235
-243
-242
-238
-240
-252
-256
-257
-253
-257
-266
-271
-266
-263
-267
-274
-273
-274
-269
-271
-272
-271
-266
-262
-266
-264
-259
-253
-248
-249
-247
-240
-233
-226
-224
-223
-217
-212
-207
-207
-205
-196
-188
-184
-182
-178
-173
-164
-161
-166
-161
-153
-146
-145
-141
-139
-136
-125
-120
-122
-123
-118
-110
-110
-110
-112
-108
-102
-99
-105
-99
-95
-89
-91
-93
-93
-88
-80
-79
-80
-79
-72
-69
-62
-61
-59
-53
-46
-44
-49
-44
-38
-30
-25
-29
-26
-22
-16
-13
-12
-9
-5
8
12
12
12
14
21
24
25
25
31
37
40
39
38
39
47
45
49
51
56
66
67
65
65
69
71
75
72
66
71
76
76
71
69
72
76
78
76
78
81
85
80
65
48
33
23
9
5
12
27
54
76
92
102
116
119
119
110
103
105
106
103
99
98
97
100
98
95
94
92
98
98
93
91
95
97
100
91
92
92
94
93
92
88
90
94
97
93
87
90
95
90
90
85
87
89
87
83
80
80
85
84
80
77
79
80
75
72
71
68
70
68
63
60
62
65
66
62
60
62
68
69
68
69
73
77
81
80
83
84
88
92
88
90
91
94
98
95
92
94
99
102
97
96
93
98
96
95
92
92
94
89
88
84
88
93
89
88
83
85
86
86
80
78
79
86
85
82
80
85
84
83
80
75
76
79
75
74
70
74
76
73
69
67
66
72
68
65
60
64
64
64
60
57
59
65
61
58
59
58
59
59
60
55
59
60
59
57
53
51
57
55
54
50
52
52
51
48
42
43
49
48
45
41
43
44
43
42
39
40
38
40
36
35
36
39
38
34
30
33
36
35
32
30
32
33
35
29
26
29
31
33
30
25
25
32
32
31
29
26
31
34
26
24
27
28
29
25
22
21
26
26
22
18
19
18
18
16
17
17
16
16
13
11
16
16
17
12
10
16
19
19
15
20
20
24
23
23
19
24
28
27
24
25
25
22
14
-6
-27
-49
-58
-65
-67
-59
-36
-14
5
23
29
35
44
41
36
27
24
22
19
14
10
7
9
9
4
1
4
8
11
9
6
8
12
8
7
2
0
0
2
-7
-10
-8
-6
-6
-5
-8
-6
-6
-7
-9
-9
-8
-6
-9
-11
-15
-18
-13
-12
-19
-16
-18
-21
-20
-28
-28
-27
-26
-25
-29
-31
-34
-26
-29
-33
-31
-28
-29
-24
-24
-27
-24
-21
-19
-19
-20
-22
-20
-22
-31
-35
-37
-40
-41
-44
-48
-51
-47
-50
-53
-52
-53
-49
-48
-47
-50
-44
-43
-37
-36
-37
-37
-28
-19
-17
-17
-14
-12
-9
-8
-10
-6
-2
-3
-9
-14
-20
-27
-30
-36
-44
-40
-35
-31
-32
-34
-28
-27
-27
-24
-28
-26
-23
-17
-19
-15
-10
-11
-10
-17
-21
-21
-17
-17
-15
-13
-3
5
5
7
5
7
10
9
4
0
-2
-1
2
-2
-7
-5
-2
3
0
-7
-6
-5
-5
-9
-13
-10
-9
-12
-15
-19
-16
-12
-12
-8
-11
-9
-5
0
-5
-13
-9
-9
-7
-9
-12
-9
-7
-6
-8
-9
-7
-6
-5
-6
-6
-8
-6
-5
-8
-8
-11
-5
-6
-11
-13
-10
-11
-7
-11
-12
-6
-4
-3
-6
-9
-6
-2
-4
-3
-8
-9
-3
-2
-5
-8
-7
-3
-1
-4
-5
-8
-3
-5
-5
-3
4
2
0
-19
-43
-63
-75
-86
-95
-95
-78
-52
-25
-6
3
20
27
25
19
16
9
9
6
4
-3
-5
0
-3
-3
-6
-5
0
-2
-4
-4
-5
-7
1
-4
-5
-5
1
1
-6
-9
-5
-4
-2
-6
-9
-5
-2
1
-4
-7
-6
-4
-4
-8
-17
-15
-16
-17
-20
-30
-34
-40
-48
-66
-80
-93
-93
-96
-102
-104
-102
-98
-96
-97
-94
-93
-85
-79
-78
-74
-69
-61
-53
-48
-43
-40
-31
-22
-21
-14
-2
10
15
21
21
25
30
31
32
34
32
40
41
39
44
45
45
46
46
40
43
46
46
42
42
43
47
48
41
40
40
41
39
40
35
35
41
42
40
38
39
44
39
38
38
40
40
42
39
36
34
34
36
32
27
21
23
22
15
12
10
12
10
10
7
11
16
16
14
8
9
14
10
9
9
7
9
7
7
2
2
1
3
2
-1
6
6
7
6
-1
-2
5
1
-5
-5
-4
1
3
0
-4
-4
1
3
0
-6
-8
-5
-5
-6
-10
-10
-6
-1
-8
-11
-9
-8
-6
-8
-14
-14
-12
-14
-14
-15
-8
-9
-11
-12
-15
-14
-12
-11
-11
-14
-15
-10
-11
-15
-15
-13
-14
-9
-10
-15
-17
-13
-14
-17
-16
-15
-13
-12
-17
-21
-16
-15
-16
-18
-22
-19
-16
-12
-12
-11
-12
-16
-27
-50
-73
-87
-99
-103
-98
-88
-62
-37
-17
0
6
10
16
16
10
1
-3
0
-2
-8
-11
-13
-10
-11
-16
-21
-19
-19
-19
-18
-22
-20
-18
-15
-17
-17
-15
-10
-10
-11
-14
-15
-14
-12
-12
-16
-14
-11
-12
-14
-21
-23
-20
-18
-21
-23
-23
-25
-25
-32
-34
-34
-36
-34
-35
-38
-41
-33
-32
-35
-32
-32
-32
-29
-30
-32
-28
-24
-23
-25
-22
-20
-12
-11
-8
-10
-13
-9
1
-6
-5
-6
-2
1
-3
-4
-4
1
6
3
4
6
6
9
2
2
2
6
5
3
6
5
5
8
5
4
4
8
6
3
3
6
7
12
5
1
2
3
2
-5
-10
-14
-16
-17
-25
-28
-31
-34
-40
-45
-51
-59
-54
-59
-60
-67
-67
-65
-65
-64
-68
-66
-62
-59
-65
-67
-66
-56
-49
-48
-54
-52
-50
-51
-52
-52
-54
-46
-42
-40
-40
-41
-39
-41
-40
-43
-41
-41
-41
-39
-39
-41
-39
-37
-41
-41
-38
-36
-34
-35
-38
-36
-30
-23
-17
-3
10
24
31
31
30
27
32
34
35
33
37
37
42
39
37
38
41
42
38
36
37
35
37
33
30
30
28
27
24
25
22
26
28
26
23
27
32
31
33
27
32
26
31
28
26
23
24
25
25
19
21
20
22
17
17
22
24
22
14
0
-22
-44
-61
-77
-81
-75
-55
-31
-7
10
28
39
43
44
40
35
31
32
26
19
16
17
17
14
12
9
15
8
7
5
4
7
8
2
0
0
0
1
1
1
2
6
2
2
1
-3
3
2
-1
-7
-5
-7
-7
-4
-9
-11
-10
-8
-14
-19
-19
-23
-22
-24
-33
-31
-34
-30
-30
-35
-34
-31
-31
-32
-33
-34
-28
-28
-26
-22
-22
-17
-8
-7
-6
-2
3
8
10
12
13
16
22
20
20
18
20
23
22
18
19
19
24
20
19
16
18
21
17
14
11
13
11
9
4
1
6
5
5
4
4
4
3
3
-4
-6
-10
-18
-29
-40
-47
-48
-52
-57
-58
-61
-59
-55
-55
-55
-53
-44
-41
-46
-42
-40
-35
-30
-28
-31
-32
-25
-25
-25
-26
-23
-17
-8
-9
-7
-2
5
11
13
15
17
19
19
19
16
15
17
18
14
13
12
14
20
16
13
14
15
20
22
21
19
23
31
32
27
33
34
39
39
36
40
41
43
41
37
40
47
45
45
46
43
43
46
43
41
38
37
39
41
39
38
38
40
37
36
33
37
34
31
27
23
25
28
25
19
22
23
23
20
17
18
19
24
22
19
21
24
26
24
19
18
18
16
13
15
10
12
16
12
11
14
15
9
-7
-28
-51
-68
-81
-85
-81
-67
-44
-17
4
17
29
34
35
31
27
19
18
17
15
9
9
6
6
4
3
3
-1
0
0
-6
-7
-5
-5
-7
-9
-9
-10
-4
-7
-10
-13
-9
-10
-9
-13
-17
-12
-11
-13
-14
-18
-14
-13
-15
-17
-19
-20
-20
-23
-29
-27
-29
-32
-32
-34
-38
-35
-36
-41
-41
-45
-40
-42
-42
-44
-44
-40
-36
-35
-34
-31
-28
-27
-24
-23
-20
-17
-13
-11
-14
-15
-11
-7
-8
-8
-5
-2
-1
0
0
-2
1
1
2
-5
0
4
1
3
-1
-7
-6
-5
-5
-8
-8
-5
-6
-4
-7
-9
-5
-5
-4
-6
-8
-5
-4
-4
-9
-11
-6
-5
-5
-9
-7
-6
-7
-7
-9
-6
-4
-2
-3
-4
-5
-6
0
-4
-9
-8
-7
-5
-4
-6
-9
-5
-2
-5
-6
-7
-7
-5
-8
-9
-9
-9
-4
-10
-9
-11
-5
-5
-3
-8
-9
-6
-4
-5
-8
-10
-10
-10
-10
-12
-14
-10
-8
-11
-13
-10
-13
-7
-8
-9
-13
-10
-8
-5
-11
-11
-7
-7
-7
-9
-11
-6
-4
-9
-6
-9
-7
-5
-4
-6
-11
-6
-2
-5
-6
-10
-6
-5
-5
-8
-7
-5
-5
-5
-5
-8
-4
-7
-6
-6
-6
-3
-3
-7
-4
-8
-6
-2
-5
-5
-7
-4
0
-5
-8
-9
-10
-7
-9
-12
-13
-14
-14
-14
-15
-15
-8
-5
-1
-9
-17
-29
-44
-64
-88
-97
-98
-91
-75
-54
-33
-9
5
15
14
13
14
10
7
4
-3
1
3
-4
-6
-9
-6
-6
-5
-9
-9
-5
-6
-4
-8
-11
-9
-7
-10
-15
-12
-13
-13
-13
-17
-17
-14
-10
-13
-17
-15
-12
-11
-15
-15
-18
-21
-17
-19
-19
-22
-21
-16
-24
-24
-28
-28
-28
-31
-33
-33
-33
-32
-34
-36
-38
-36
-33
-30
-30
-32
-24
-19
-17
-15
-11
-6
-4
-4
-3
-5
-1
6
8
7
3
9
13
7
8
6
8
8
9
6
8
6
7
4
4
3
4
8
5
2
-3
2
2
-5
-7
-7
-6
-3
-2
-2
-6
-5
-1
-3
-3
-6
-2
3
-1
-1
1
2
-4
-3
-6
-7
-10
-6
-9
-12
-15
-13
-11
-13
-13
-10
-13
-9
-10
-12
-12
-12
-11
-13
-16
-15
-14
-15
-11
-14
-18
-19
-19
-18
-18
-20
-17
-14
-17
-21
-19
-19
-17
-18
-18
-17
-14
-10
-10
-15
-12
-9
-7
-9
-11
-11
-7
-6
-7
-14
-12
-14
-12
-13
-14
-16
-13
-11
-13
-17
-20
-21
-19
-21
-16
-20
-18
-17
-15
-15
-18
-14
-16
-16
-22
-25
-25
-23
-22
-23
-19
-19
-15
-16
-12
-21
-15
-12
-12
-11
-12
-13
-7
-9
-13
-16
-8
-8
-9
-9
-13
-9
-6
-13
-14
-13
-11
-7
-9
-9
-8
-8
-5
-7
-9
-10
-9
-7
-3
-4
-6
0
1
0
-4
-4
-6
-4
2
4
3
5
1
-13
-33
-52
-73
-84
-90
-86
-75
-53
-27
-5
11
24
29
32
34
28
21
15
15
12
9
7
6
1
4
0
-2
2
6
3
2
-2
-6
2
0
-5
-5
0
2
0
-2
-5
-3
1
-1
0
-3
-5
-3
-6
-9
-11
-13
-11
-13
-16
-15
-16
-14
-19
-22
-23
-24
-24
-23
-27
-31
-24
-24
-26
-27
-29
-27
-24
-26
-27
-27
-27
-23
-22
-20
-18
-16
-13
-12
-10
-10
-8
-4
0
3
-1
5
7
10
8
6
5
6
2
0
-4
1
2
1
0
-7
0
1
-2
-3
0
-1
-1
2
-5
-5
-4
1
0
-2
-5
-3
-2
0
-4
-6
-6
0
0
-5
-9
-4
-2
0
-5
-7
-7
-2
-1
-7
-5
-5
-2
3
0
-3
1
3
4
0
-4
-2
1
0
2
1
4
1
3
2
-2
1
7
5
4
3
1
8
6
5
5
7
9
11
9
8
11
11
11
9
6
10
9
9
8
8
11
15
12
9
7
13
13
13
11
9
10
15
11
9
7
8
10
12
8
7
12
15
16
14
11
16
16
16
15
14
15
19
18
18
14
16
17
20
16
15
14
12
7
-1
-3
-9
-13
-15
-22
-26
-31
-30
-29
-32
-35
-30
-28
-25
-30
-24
-22
-16
-21
-21
-20
-20
-12
-8
-6
-5
1
5
8
12
14
17
21
26
28
32
35
31
24
5
-12
-32
-44
-52
-54
-40
-19
5
29
44
53
61
65
64
57
52
45
48
47
48
40
40
41
43
38
35
34
33
35
31
27
28
32
30
27
25
23
25
25
22
19
21
25
21
19
19
13
16
14
11
9
8
11
6
6
4
3
4
-3
-5
-8
-11
-8
-10
-13
-19
-18
-18
-16
-25
-23
-25
-22
-22
-25
-22
-20
-16
-14
-14
-12
-8
-3
4
4
3
9
9
15
12
13
16
13
17
13
16
15
20
19
16
13
15
16
15
10
10
10
11
11
9
8
6
5
6
2
-5
-4
-3
-2
-4
-9
-9
-6
-5
-7
-9
-6
-5
-5
-9
-10
-11
-8
-10
-10
-13
-12
-8
-9
-10
-13
-14
-10
-8
-8
-14
-11
-11
-15
-12
-12
-13
-14
-11
-13
-13
-9
-7
-10
-12
-13
-12
-13
-9
-11
-9
-10
-6
-9
-11
-11
-13
-12
-11
-10
-10
-8
-9
-5
-7
-10
-9
-7
-6
-10
-7
-7
-6
-9
-11
-12
-8
-7
-9
-11
-11
-11
-8
-8
-10
-13
-13
-8
-10
-10
-13
-13
-12
-12
-21
-22
-21
-23
-21
-20
-29
-25
-23
-22
-27
-28
-26
-25
-25
-22
-22
-22
-21
-22
-20
-24
-23
-20
-21
-21
-24
-23
-25
-20
-25
-27
-24
-25
-25
-29
-33
-29
-31
-30
-30
-30
-25
-19
-18
-21
-19
-18
-18
-16
-17
-17
-14
-15
-18
-21
-20
-24
-18
-19
-21
-23
-23
-16
-15
-12
-15
-20
-32
-50
-70
-90
-103
-109
-104
-94
-79
-54
-21
-4
10
12
15
15
12
5
1
-5
-4
-6
-7
-10
-9
-12
-11
-14
-13
-14
-12
-10
-14
-14
-16
-15
-12
-16
-15
-16
-15
-17
-17
-18
-21
-18
-16
-16
-20
-19
-19
-16
-19
-24
-20
-22
-24
-26
-29
-28
-28
-29
-31
-32
-41
-37
-40
-43
-44
-46
-46
-47
-50
-54
-53
-48
-48
-51
-50
-45
-40
-39
-36
-34
-31
-24
-21
-19
-23
-19
-17
-17
-15
-15
-13
-10
-8
-14
-14
-11
-8
-7
-10
-12
-11
-9
-7
-8
-10
-9
-6
-8
-8
-10
-10
-4
-7
-5
-13
-9
-7
-5
-9
-9
-13
-7
-4
-4
-6
-5
-6
-7
-9
-8
-8
-5
-5
-4
-7
-10
-6
-7
-12
-12
-16
-13
-10
-14
-19
-21
-21
-18
-23
-25
-22
-21
-19
-20
-20
-24
-18
-16
-18
-21
-23
-19
-21
-18
-21
-23
-23
-24
-24
-26
-24
-25
-19
-21
-25
-20
-17
-18
-20
-22
-23
-19
-21
-21
-20
-18
-15
-16
-17
-20
-19
-16
-17
-13
-16
-17
-10
-8
-14
-17
-14
-17
-12
-16
-15
-18
-12
-14
-18
-13
-17
-13
-13
-18
-16
-25
-27
-28
-33
-31
-31
-30
-27
-31
-32
-33
-32
-34
-35
-39
-39
-36
-34
-38
-41
-44
-41
-37
-43
-39
-36
-32
-31
-31
-31
-29
-25
-25
-24
-25
-25
-24
-20
-18
-20
-23
-23
-18
-19
-22
-18
-15
-14
-11
-13
-11
-10
-19
-32
-57
-80
-95
-99
-98
-84
-67
-41
-15
7
16
23
27
30
23
18
17
19
17
16
10
6
10
11
7
6
6
3
8
8
6
3
6
9
7
2
3
10
14
11
9
12
20
23
18
16
15
18
20
18
13
11
13
13
12
8
4
7
8
4
-2
-7
-4
-4
-8
-14
-14
-9
-8
-14
-13
-12
-11
-12
-12
-13
-11
-9
0
0
1
6
13
24
26
28
33
36
39
40
41
44
49
52
50
46
46
48
48
44
43
48
48
49
47
46
48
51
53
49
49
52
51
52
52
50
50
51
52
49
47
48
48
49
47
42
44
48
54
56
56
59
64
65
63
60
63
66
66
67
68
65
69
67
67
68
65
68
65
62
59
56
56
60
54
54
52
54
55
51
49
49
47
48
44
43
38
42
42
38
34
35
37
40
38
34
34
38
38
34
30
28
28
29
27
23
23
25
21
22
17
13
15
9
10
4
-1
4
-2
-3
-9
-10
-11
-10
-13
-15
-13
-10
-9
-5
-9
-6
-1
-4
-4
-7
-4
1
4
-1
-4
-1
-2
-4
-7
-7
-12
-7
-8
-5
-12
-12
-12
-14
-16
-18
-20
-16
-15
-13
-15
-12
-12
-10
-11
-13
-14
-17
-15
-19
-16
-20
-21
-21
-25
-28
-28
-27
-24
-28
-28
-31
-25
-20
-21
-20
-26
-28
-44
-67
-95
-107
-120
-122
-112
-98
-68
-40
-18
-6
-2
-2
1
0
-6
-10
-13
-9
-9
-7
-8
-9
-9
-11
-7
-9
-13
-12
-13
-14
-12
-12
-12
-12
-15
-19
-22
-23
-20
-22
-24
-21
-19
-19
-21
-25
-26
-25
-23
-22
-22
-27
-22
-20
-25
-26
-23
-19
-20
-14
-16
-12
-7
-8
-9
-8
-9
-6
-5
-10
-14
-15
-15
-13
-11
-15
-12
-10
-5
-3
-5
-5
2
7
10
11
14
20
22
18
21
21
22
26
24
18
20
19
19
18
18
16
13
17
13
10
7
11
14
13
13
10
9
12
10
7
5
8
8
9
5
5
7
8
9
5
4
6
6
3
3
2
2
4
5
4
-2
2
5
-3
-4
-6
-6
-7
-7
-10
-11
-8
-5
-9
-8
-13
-11
-11
-9
-12
-9
-10
-9
-11
-13
-14
-13
-10
-10
-13
-13
-13
-12
-12
-17
-16
-15
-15
-16
-17
-18
-19
-15
-18
-18
-19
-19
-16
-18
-22
-21
-19
-18
-20
-22
-20
-20
-21
-21
-21
-20
-16
-17
-20
-20
-19
-20
-20
-20
-23
-23
-21
-22
-20
-29
-26
-28
-26
-33
-31
-32
-29
-27
-30
-30
-30
-29
-21
-22
-24
-23
-24
-21
-24
-24
-25
-24
-21
-19
-25
-21
-22
-19
-19
-22
-19
-16
-11
-9
-15
-19
-30
-45
-64
-86
-101
-105
-98
-86
-64
-43
-23
-4
8
8
9
9
8
3
-6
-11
-9
-9
-9
-11
-12
-12
-11
-12
-16
-16
-16
-16
-16
-21
-23
-20
-15
-17
-21
-19
-23
-16
-20
-22
-25
-18
-22
-22
-23
-28
-27
-21
-22
-29
-29
-25
-27
-27
-28
-29
-28
-31
-28
-32
-37
-35
-35
-36
-38
-40
-40
-38
-39
-42
-42
-42
-35
-36
-36
-34
-29
-26
-25
-22
-22
-12
-8
-9
-5
-4
-2
-1
1
-3
-1
1
2
3
-2
2
2
3
-1
0
-2
0
1
0
-6
-6
-2
2
-4
-6
-6
-3
3
-3
-3
-7
-5
-2
-12
-13
-13
-13
-12
-13
-17
-17
-16
-11
-17
-18
-21
-24
-25
-19
-19
-16
-12
-10
-8
-16
-14
-13
-8
-12
-14
-14
-13
-8
-9
-11
-10
-8
-5
-6
-8
-10
-8
-9
-11
-10
-12
-14
-10
-13
-9
-14
-13
-8
-9
-11
-14
-13
-13
-12
-15
-20
-23
-22
-26
-26
-24
-21
-25
-28
-27
-21
-22
-21
-19
-23
-23
-22
-23
-21
-24
-24
-23
-23
-20
-28
-27
-25
-21
-18
-23
-22
-23
-20
-21
-21
-22
-21
-17
-21
-23
-22
-22
-17
-16
-19
-22
-16
-14
-10
-10
-15
-24
-43
-61
-87
-100
-106
-106
-97
-80
-61
-37
-17
-9
-7
-6
-11
-12
-18
-24
-26
-30
-27
-29
-30
-29
-31
-28
-31
-29
-28
-28
-24
-27
-25
-29
-26
-27
-25
-28
-31
-29
-30
-28
-29
-29
-31
-26
-28
-29
-30
-31
-25
-26
-29
-27
-25
-27
-24
-27
-32
-33
-29
-32
-37
-39
-37
-37
-40
-43
-40
-41
-42
-44
-46
-50
-43
-37
-34
-39
-36
-29
-23
-22
-19
-18
-12
-7
-5
-4
1
4
11
12
14
14
16
15
16
17
16
15
23
21
19
16
16
18
16
14
12
13
13
16
13
12
14
15
18
14
12
15
16
16
11
12
11
13
10
7
9
12
13
16
13
11
18
16
16
11
10
17
16
17
16
12
15
18
13
16
16
14
19
14
14
14
13
17
16
15
18
17
23
22
19
22
23
26
23
20
20
20
24
24
19
21
21
22
25
18
17
20
24
24
21
21
24
23
23
21
22
25
26
27
25
27
29
28
27
25
23
25
27
27
25
22
21
26
26
25
26
31
32
32
29
28
29
35
30
30
27
30
27
27
28
26
30
31
33
30
28
29
34
35
36
38
38
26
11
-15
-33
-50
-58
-55
-49
-28
-5
24
41
53
60
61
64
60
51
47
45
47
45
42
40
44
43
41
42
45
46
47
50
50
46
48
49
48
44
43
42
46
44
44
45
42
45
45
44
40
39
42
42
39
38
39
39
35
32
31
28
30
27
24
16
14
14
6
0
0
-4
-4
-2
-8
-13
-10
-9
-8
-10
-10
-7
-1
3
1
3
8
12
14
12
15
15
21
24
25
26
28
30
27
25
22
24
25
27
20
15
17
18
16
17
16
16
16
15
11
12
10
10
7
7
1
1
5
7
2
-3
-2
2
2
1
-4
2
3
4
-4
-5
-5
-2
-5
-6
-11
-5
-7
-8
-13
-13
-13
-10
-6
-11
-11
-7
-8
-5
-5
-9
-7
-9
-7
-10
-12
-13
-12
-9
-16
-16
-17
-14
-15
-17
-19
-17
-14
-12
-17
-16
-17
-18
-18
-17
-20
-19
-13
-17
-17
-20
-18
-18
-19
-20
-22
-23
-22
-22
-26
-27
-29
-23
-23
-29
-28
-26
-28
-33
-28
-34
-31
-25
-29
-31
-32
-31
-28
-24
-28
-34
-32
-30
-30
-33
-32
-28
-27
-27
-26
-35
-30
-26
-28
-30
-31
-28
-25
-28
-32
-31
-32
-33
-33
-28
-30
-31
-27
-24
-28
-29
-29
-25
-24
-24
-25
-22
-21
-25
-25
-27
-26
-19
-19
-20
-29
-41
-54
-74
-96
-109
-109
-105
-94
-73
-53
-33
-15
-5
2
-3
0
-5
-9
-16
-19
-18
-16
-20
-20
-22
-21
-18
-19
-22
-23
-26
-25
-22
-27
-29
-24
-24
-24
-27
-33
-30
-27
-26
-31
-27
-27
-24
-23
-27
-28
-27
-24
-28
-26
-32
-30
-28
-30
-35
-40
-41
-39
-42
-45
-45
-43
-45
-42
-47
-51
-53
-51
-47
-53
-52
-51
-49
-46
-46
-45
-43
-35
-29
-29
-29
-26
-19
-15
-17
-12
-10
-7
-4
-6
-9
-5
1
-1
-5
-7
-4
-4
-5
-6
-7
-9
-9
-4
-6
-8
-8
-5
-5
-7
-6
-9
-5
-7
-11
-15
-16
-15
-15
-16
-17
-16
-11
-12
-12
-13
-12
-10
-9
-11
-17
-10
-7
-8
-10
-14
-8
-10
-9
-11
-11
-9
-6
-6
-7
-8
-11
-5
-2
-6
-9
-8
-5
-5
-8
-13
-12
-9
-13
-15
-18
-13
-13
-10
-11
-17
-13
-7
-9
-10
-12
-13
-8
-5
-8
-7
-5
-3
-4
-8
-8
-9
-9
-7
-10
-12
-17
-10
-12
-15
-19
-17
-17
-14
-16
-17
-20
-18
-18
-22
-25
-23
-25
-21
-24
-27
-29
-22
-24
-27
-28
-26
-27
-25
-29
-33
-30
-35
-35
-38
-44
-44
-47
-41
-42
-47
-46
-42
-42
-48
-48
-49
-48
-49
-52
-53
-53
-49
-46
-52
-55
-51
-52
-50
-52
-52
-51
-47
-46
-46
-44
-44
-41
-40
-40
-43
-39
-33
-32
-35
-32
-33
-32
-31
-35
-36
-36
-31
-30
-33
-35
-30
-28
-22
-26
-24
-24
-25
-21
-23
-22
-19
-12
-13
-12
-23
-27
-45
-61
-84
-99
-97
-90
-74
-52
-29
-3
16
28
33
29
28
26
23
23
17
17
19
19
14
12
14
15
14
13
11
16
18
17
11
10
11
14
18
13
11
14
16
13
10
4
3
8
10
8
5
7
11
8
6
3
4
3
5
3
0
1
3
0
-5
-7
-6
0
-7
-8
-12
-9
-4
-5
-8
-6
-9
-5
-2
-5
-1
3
9
7
7
7
10
12
22
18
20
23
27
32
30
30
32
36
40
35
36
35
41
39
37
36
35
35
36
29
28
32
32
31
31
31
36
37
38
38
36
39
40
42
42
38
42
45
43
42
43
46
47
51
50
45
48
49
48
47
41
45
44
44
45
44
44
48
45
43
41
43
46
48
46
47
48
54
53
49
52
47
53
58
55
59
61
62
64
66
64
65
66
66
63
62
62
60
62
62
58
58
59
60
57
54
51
56
52
50
46
44
46
50
46
44
43
44
45
42
38
35
38
39
34
33
33
33
33
32
28
26
27
28
21
18
17
24
22
17
17
18
17
18
15
15
12
15
17
9
7
8
8
6
3
5
3
5
9
5
1
4
5
1
-1
-4
-7
-2
-4
-7
-7
-9
-7
-13
-12
-12
-9
-13
-10
-11
-17
-17
-13
-15
-15
-16
-15
-13
-11
-19
-19
-19
-16
-20
-22
-24
-25
-20
-19
-23
-19
-20
-15
-7
-13
-21
-32
-46
-66
-87
-106
-112
-105
-93
-74
-50
-29
-9
5
6
2
3
0
-4
-10
-16
-15
-12
-12
-14
-18
-22
-20
-20
-21
-23
-23
-22
-21
-26
-29
-29
-26
-26
-28
-29
-29
-23
-28
-26
-32
-32
-31
-29
-31
-34
-35
-37
-34
-32
-39
-39
-37
-36
-37
-40
-40
-38
-37
-42
-44
-46
-46
-49
-52
-52
-53
-52
-50
-51
-55
-56
-53
-49
-51
-49
-47
-43
-40
-37
-37
-35
-29
-23
-23
-20
-19
-14
-10
-13
-12
-7
-4
-4
-6
-6
-5
0
-1
-6
-4
0
1
1
-2
-5
-5
-4
-5
-9
-13
-7
-7
-7
-9
-12
-10
-6
-7
-8
-13
-10
-8
-7
-6
-11
-4
-8
-5
-8
-12
-12
-8
-10
-12
-14
-13
-10
-7
-9
-10
-9
-8
-5
-12
-10
-10
-9
-8
-13
-13
-13
-13
-10
-10
-14
-15
-12
-13
-13
-12
-16
-14
-10
-17
-17
-17
-17
-14
-16
-17
-17
-16
-17
-16
-17
-17
-19
-14
-17
-16
-17
-13
-17
-15
-15
-14
-14
-15
-18
-22
-14
-13
-13
-12
-15
-13
-9
-14
-12
-18
-19
-18
-15
-16
-17
-19
-16
-18
-21
-22
-21
-18
-19
-21
-22
-22
-20
-20
-21
-25
-25
-22
-26
-25
-27
-26
-20
-23
-24
-24
-26
-21
-21
-24
-25
-25
-23
-21
-20
-24
-23
-22
-21
-24
-25
-28
-29
-29
-28
-31
-27
-24
-25
-29
-31
-32
-30
-30
-32
-32
-34
-32
-33
-29
-31
-33
-30
-29
-27
-29
-33
-25
-29
-31
-34
-28
-25
-25
-30
-46
-73
-92
-109
-128
-136
-136
-120
-96
-77
-53
-32
-22
-12
-11
-15
-18
-20
-24
-27
-34
-36
-34
-33
-33
-38
-37
-37
-28
-34
-37
-37
-36
-36
-38
-40
-36
-32
-27
-32
-31
-31
-29
-26
-29
-28
-29
-23
-22
-23
-29
-25
-25
-23
-22
-24
-27
-25
-27
-24
-34
-32
-29
-30
-33
-39
-35
-35
-36
-38
-42
-46
-42
-39
-37
-36
-37
-33
-31
-33
-30
-26
-22
-15
-16
-13
-9
-1
4
4
1
7
10
15
18
14
11
20
19
17
14
14
15
18
18
20
17
21
25
22
20
17
19
22
19
18
15
19
22
17
14
17
17
19
15
14
11
16
15
13
11
13
14
15
12
16
14
17
15
14
12
11
15
16
16
13
12
12
14
14
13
16
17
18
19
15
14
17
17
18
16
14
13
15
15
13
14
18
17
15
13
7
14
13
13
11
13
16
18
17
15
13
16
14
13
13
15
18
16
15
14
13
17
18
12
11
11
14
14
11
7
12
13
16
11
11
11
15
15
16
16
15
20
21
17
19
18
22
19
20
20
20
20
21
24
21
20
22
23
23
22
21
22
25
23
19
20
18
24
22
23
23
28
26
29
30
29
30
33
31
30
23
25
29
26
24
24
21
27
26
26
25
31
38
41
37
35
30
10
-11
-37
-54
-62
-63
-56
-37
-13
14
31
46
51
54
56
53
48
40
35
38
35
35
32
29
29
33
27
24
26
27
29
26
23
22
26
24
23
20
18
20
16
17
13
14
13
16
13
7
8
10
11
8
6
3
8
8
12
10
9
11
18
17
15
14
11
9
7
4
2
3
3
2
1
1
2
-2
1
1
-1
7
8
9
13
15
19
25
22
24
24
28
33
31
32
32
31
33
34
34
30
32
34
32
27
26
28
32
23
19
16
18
18
12
10
11
10
13
12
7
7
10
7
6
6
4
3
2
-1
-6
-3
-5
-5
-3
-4
-6
-5
-4
-4
-7
-11
-8
-9
-11
-12
-13
-13
-14
-15
-17
-19
-18
-17
-18
-20
-20
-19
-15
-18
-18
-22
-20
-17
-17
-21
-21
-19
-18
-21
-23
-22
-21
-19
-21
-24
-21
-21
-19
-24
-23
-23
-24
-21
-24
-24
-23
-22
-21
-21
-23
-24
-25
-24
-24
-26
-28
-29
-24
-28
-28
-33
-29
-27
-25
-26
-26
-24
-22
-23
-24
-27
-23
-22
-22
-25
-26
-25
-22
-28
-29
-28
-32
-25
-29
-30
-28
-25
-28
-24
-28
-29
-29
-24
-32
-33
-32
-36
-32
-34
-37
-38
-37
-32
-35
-36
-39
-37
-36
-38
-41
-38
-36
-32
-32
-37
-33
-34
-29
-33
-37
-36
-32
-33
-33
-34
-37
-32
-30
-33
-38
-32
-32
-29
-29
-29
-29
-26
-24
-32
-49
-67
-87
-101
-114
-118
-108
-89
-68
-45
-29
-12
-2
1
2
-5
-9
-13
-16
-18
-18
-19
-23
-16
-21
-24
-25
-25
-20
-23
-24
-22
-25
-24
-22
-25
-24
-24
-24
-25
-25
-25
-23
-20
-22
-28
-27
-26
-23
-28
-25
-32
-31
-28
-32
-32
-34
-35
-36
-41
-45
-47
-51
-49
-51
-54
-57
-56
-58
-60
-66
-71
-73
-78
-83
-87
-85
-85
-82
-81
-80
-77
-74
-67
-66
-64
-59
-54
-48
-47
-49
-44
-39
-35
-37
-32
-33
-26
-22
-21
-23
-22
-21
-21
-23
-22
-22
-23
-20
-23
-25
-26
-25
-22
-25
-25
-26
-23
-24
-26
-28
-28
-24
-21
-21
-22
-21
-19
-20
-19
-21
-23
-14
-14
-11
-13
-13
-11
-6
-11
-10
-9
-7
-5
-4
-8
-3
-1
1
1
-4
-1
2
5
5
4
3
6
11
6
7
8
8
11
9
8
5
8
7
9
3
10
10
14
10
13
9
11
11
10
3
8
8
10
9
8
7
11
14
13
12
11
14
17
14
12
13
14
17
17
15
13
18
16
16
14
15
19
19
24
20
21
21
21
23
20
22
24
26
25
28
23
27
29
25
24
23
24
28
25
26
25
24
26
26
24
23
27
31
28
28
29
29
33
29
30
27
31
34
32
31
29
33
33
35
37
34
40
40
40
36
33
36
36
41
40
44
36
28
9
-19
-34
-46
-52
-53
-45
-23
4
29
46
58
63
65
63
56
50
45
44
41
37
38
32
32
35
35
28
25
26
28
25
22
21
24
24
24
20
19
19
25
21
16
14
16
16
16
14
15
16
18
17
14
9
13
15
11
8
4
6
5
2
-3
-5
-3
-9
-8
-15
-18
-17
-14
-15
-19
-21
-20
-16
-17
-18
-14
-8
-1
8
10
12
16
23
25
25
25
28
31
34
34
34
36
39
36
33
35
36
39
37
35
33
35
34
31
31
27
29
33
32
25
23
23
24
19
18
18
19
20
17
15
16
14
11
15
12
10
9
9
12
4
6
7
9
7
7
8
7
12
12
6
6
7
11
11
5
6
5
5
4
0
-1
2
1
-2
-3
-5
1
1
-2
-3
-7
0
-3
-3
-7
-6
-9
-8
-7
-9
-9
-6
-5
-8
-10
-10
-11
-8
-12
-10
-11
-13
-13
-13
-17
-17
-16
-14
-19
-18
-22
-24
-23
-26
-30
-34
-28
-30
-32
-34
-34
-31
-31
-30
-32
-33
-31
-28
-32
-34
-34
-34
-33
-35
-36
-40
-37
-38
-38
-41
-40
-40
-39
-41
-42
-45
-45
-42
-43
-46
-51
-48
-45
-50
-47
-48
-45
-44
-41
-40
-43
-41
-40
-42
-43
-46
-46
-41
-44
-44
-50
-48
-46
-48
-48
-48
-47
-47
-44
-44
-40
-48
-48
-62
-82
-106
-118
-123
-128
-122
-105
-78
-58
-40
-25
-21
-17
-17
-19
-24
-30
-29
-29
-34
-33
-38
-35
-35
-35
-39
-39
-36
-40
-38
-40
-44
-44
-44
-44
-49
-51
-52
-55
-59
-62
-68
-65
-67
-69
-72
-76
-72
-73
-71
-72
-73
-75
-70
-72
-76
-77
-76
-79
-78
-82
-81
-80
-77
-79
-83
-87
-86
-84
-83
-86
-88
-86
-84
-82
-85
-82
-81
-77
-76
-73
-71
-67
-58
-54
-54
-51
-45
-41
-36
-39
-35
-32
-28
-27
-29
-29
-26
-25
-25
-26
-27
-25
-22
-20
-27
-30
-24
-24
-21
-20
-24
-24
-20
-23
-23
-25
-22
-21
-17
-22
-21
-17
-13
-15
-16
-17
-12
-12
-10
-16
-14
-15
-12
-12
-12
-17
-10
-5
-7
-7
-8
-8
-5
-5
-6
-7
-7
0
-3
-4
-5
-3
5
1
0
2
3
6
4
3
5
3
6
8
6
8
10
11
10
7
1
6
10
9
10
6
10
9
12
9
8
9
10
11
11
12
10
16
12
12
11
12
14
13
12
7
12
15
13
12
10
13
16
17
16
14
20
18
17
11
12
13
16
21
13
18
18
20
19
16
15
17
20
21
19
15
16
20
20
18
15
18
15
19
18
21
22
23
25
22
21
26
26
25
24
22
28
32
34
32
34
32
35
37
33
29
35
34
38
39
35
31
19
4
-21
-40
-53
-55
-50
-42
-20
9
34
47
58
61
64
62
64
60
57
53
54
53
48
49
47
51
49
46
44
43
44
44
40
39
41
41
40
40
38
39
41
41
38
35
35
40
38
37
41
37
42
44
35
35
36
36
36
31
32
31
32
31
26
19
22
23
20
15
13
11
10
7
3
1
-1
-2
3
1
-3
0
8
5
7
8
18
18
19
22
22
24
30
29
27
26
28
32
32
29
32
29
33
32
31
31
34
33
33
28
28
27
30
28
24
23
23
26
29
28
28
31
34
33
29
28
28
29
29
27
23
28
24
22
17
18
21
22
22
17
17
15
19
19
13
11
13
13
10
12
8
6
6
4
3
-4
-2
0
-3
-9
-9
-9
-4
-7
-15
-16
-16
-15
-12
-16
-21
-17
-19
-17
-19
-22
-19
-17
-15
-19
-20
-20
-19
-22
-23
-26
-23
-22
-23
-23
-23
-24
-23
-24
-31
-31
-29
-26
-24
-23
-29
-22
-22
-21
-25
-25
-25
-22
-20
-24
-22
-27
-20
-20
-20
-22
-24
-21
-22
-26
-27
-25
-25
-24
-30
-28
-24
-23
-26
-23
-24
-29
-24
-24
-27
-29
-25
-26
-25
-25
-25
-23
-21
-22
-21
-20
-22
-19
-18
-21
-24
-24
-21
-24
-27
-29
-27
-23
-24
-22
-21
-19
-21
-23
-19
-21
-15
-15
-12
-13
-12
-9
-10
-11
-9
-10
-10
-9
-9
-8
-6
-4
-3
-9
-19
-36
-61
-75
-92
-103
-103
-91
-68
-44
-23
-7
11
20
24
19
15
12
7
8
0
-5
-5
-6
-9
-12
-14
-13
-10
-9
-11
-8
-8
-7
-9
-8
-14
-13
-14
-17
-16
-14
-15
-10
-8
-14
-16
-14
-16
-19
-21
-20
-17
-16
-14
-19
-22
-23
-20
-21
-28
-29
-32
-29
-30
-38
-36
-39
-40
-41
-45
-45
-40
-39
-39
-42
-46
-49
-45
-40
-42
-38
-32
-31
-27
-24
-23
-20
-18
-19
-17
-17
-21
-19
-21
-28
-27
-25
-24
-25
-25
-29
-27
-25
-24
-28
-25
-25
-22
-24
-29
-27
-27
-27
-25
-26
-26
-24
-19
-19
-20
-20
-19
-17
-17
-16
-16
-19
-17
-12
-16
-16
-14
-11
-12
-12
-11
-13
-10
-10
-9
-14
-12
-13
-7
-7
-6
-9
-7
-7
-10
-15
-15
-10
-8
-11
-13
-8
-7
-8
-10
-11
-13
-9
-9
-10
-13
-8
-8
-9
-6
-8
-5
0
-3
-1
-5
-5
-4
-4
-5
-9
-9
-4
-3
-4
-3
2
3
2
0
0
-5
1
1
1
-2
1
3
1
-2
-2
1
0
2
0
-1
4
4
3
-1
-3
2
4
3
-1
4
7
9
8
4
4
3
6
4
2
4
2
8
10
8
8
5
7
8
9
6
8
9
9
5
7
4
3
10
4
2
3
5
7
3
2
2
2
2
0
-4
0
-1
-2
-4
-7
-8
-4
-10
-11
-17
-11
-10
-7
-11
-12
-9
-11
-4
-7
-6
-6
0
-1
-2
-6
-8
-1
4
4
6
2
-9
-23
-42
-67
-81
-87
-83
-73
-49
-25
2
20
33
39
44
47
42
39
33
32
33
31
27
21
24
19
21
20
22
19
19
21
17
15
19
21
19
20
15
15
16
18
15
16
16
16
15
12
14
11
16
17
17
14
14
16
14
15
14
16
15
17
13
12
12
12
8
3
1
-1
-5
0
-3
-3
1
3
5
4
3
6
12
14
14
16
19
26
28
32
31
35
39
41
41
42
44
47
50
45
44
45
46
48
45
43
44
48
43
41
43
40
43
44
41
37
39
41
44
40
39
39
37
40
35
31
33
34
32
30
29
29
31
29
26
20
25
25
25
20
18
16
19
18
15
13
10
14
10
11
12
10
11
13
12
10
9
9
9
5
3
4
8
7
6
5
2
6
4
5
3
2
5
2
-1
-3
0
0
-5
-4
-8
-7
-6
-4
-7
-12
-7
-6
-3
-9
-13
-8
-9
-7
-7
-14
-12
-12
-14
-17
-16
-17
-21
-20
-24
-25
-23
-25
-22
-26
-29
-24
-23
-23
-27
-26
-24
-21
-23
-22
-25
-22
-22
-22
-23
-25
-25
-23
-21
-24
-25
-23
-20
-22
-24
-24
-22
-21
-23
-23
-27
-28
-24
-24
-23
-25
-24
-22
-23
-24
-28
-28
-29
-26
-30
-29
-26
-23
-21
-24
-25
-24
-24
-27
-30
-29
-33
-26
-28
-28
-28
-24
-21
-20
-19
-20
-21
-18
-17
-17
-19
-16
-14
-18
-21
-21
-23
-21
-18
-25
-25
-20
-17
-16
-13
-18
-19
-29
-45
-67
-89
-104
-107
-105
-98
-76
-51
-26
-9
-2
5
10
12
5
1
-4
-9
-5
-5
-9
-9
-10
-4
-6
-8
-14
-15
-17
-15
-21
-24
-26
-22
-23
-23
-23
-23
-18
-19
-21
-21
-21
-20
-21
-22
-23
-22
-22
-22
-25
-28
-24
-24
-27
-27
-30
-26
-27
-25
-28
-28
-30
-30
-30
-35
-41
-41
-42
-41
-44
-45
-43
-43
-42
-44
-45
-41
-36
-35
-35
-33
-27
-21
-22
-21
-17
-21
-14
-11
-10
-11
-8
-3
0
0
-3
0
1
-1
-6
-4
-5
-4
-3
-3
-4
-3
1
4
-1
-5
-4
-5
-3
-4
-5
-7
-7
-7
-11
-13
-13
-7
-3
-10
-8
-9
-9
-9
-5
-8
-8
-6
-7
-12
-12
-14
-11
-13
-15
-15
-15
-13
-15
-17
-18
-21
-16
-19
-20
-21
-20
-23
-21
-21
-23
-23
-18
-23
-24
-29
-30
-29
-28
-30
-31
-30
-28
-29
-29
-33
-32
-34
-32
-39
-38
-40
-40
-38
-43
-44
-45
-41
-41
-41
-42
-41
-39
-40
-38
-39
-39
-37
-33
-35
-39
-37
-34
-35
-35
-39
-34
-33
-31
-32
-30
-33
-32
-29
-32
-32
-34
-31
-31
-30
-32
-31
-26
-30
-26
-28
-26
-25
-24
-24
-25
-23
-23
-20
-25
-27
-24
-22
-22
-24
-26
-23
-23
-20
-20
-18
-12
-14
-17
-12
-17
-19
-16
-15
-16
-18
-15
-13
-10
-14
-15
-12
-12
-10
-13
-13
-12
-9
-11
-10
-12
-5
-7
-1
-5
-4
0
2
4
2
-3
1
2
6
4
9
11
8
-4
-21
-44
-66
-76
-83
-78
-68
-45
-17
9
19
27
38
40
38
32
27
24
22
21
20
17
17
18
18
15
14
15
13
16
11
11
8
10
12
7
7
7
9
12
7
10
8
14
14
11
12
10
11
10
10
7
8
7
8
9
5
3
5
4
2
-3
-5
-4
-5
-6
-11
-11
-9
-10
-13
-13
-13
-15
-13
-15
-18
-18
-15
-10
-10
-9
-3
5
10
14
16
18
23
28
27
29
31
38
41
41
39
42
46
44
44
38
37
41
38
34
32
32
34
36
35
34
30
34
38
39
35
37
36
36
33
27
29
30
30
26
23
22
28
30
25
26
29
32
32
31
27
27
32
31
32
29
30
32
31
32
30
23
29
31
30
30
33
34
34
34
32
27
34
34
30
30
32
32
31
28
27
25
29
25
18
16
14
19
16
16
13
16
17
16
15
12
13
15
13
13
10
9
10
13
12
9
8
11
12
10
10
10
12
14
11
8
11
14
13
12
7
10
11
12
8
5
4
6
6
4
2
5
10
6
4
3
2
3
3
1
1
4
4
4
3
-1
-1
4
5
-1
1
2
3
2
-2
-5
-5
1
0
-5
-7
-7
-9
-9
-11
-12
-13
-4
-5
-6
-7
-5
0
-2
-3
-6
2
2
1
-3
-6
-8
-4
-5
-4
-7
-3
1
1
0
-2
-1
5
2
-8
-26
-44
-63
-80
-91
-94
-83
-62
-41
-18
0
11
24
25
19
16
9
6
1
-2
-7
-4
-6
-7
-9
-9
-11
-12
-10
-15
-17
-19
-17
-17
-14
-18
-17
-17
-14
-19
-20
-19
-18
-18
-21
-21
-27
-24
-26
-26
-33
-31
-30
-24
-28
-34
-32
-29
-26
-30
-31
-33
-33
-34
-32
-34
-34
-37
-33
-41
-43
-43
-45
-44
-46
-48
-53
-50
-50
-48
-47
-42
-37
-32
-29
-29
-26
-22
-17
-17
-17
-12
-14
-9
-10
-12
-10
-8
-5
-3
-4
-4
0
0
-5
-6
-7
-4
-4
-5
-7
-6
0
-1
-3
-3
0
3
6
1
1
2
2
2
1
0
2
4
1
3
4
0
-1
2
-2
-3
-2
-3
-1
-4
-5
-3
-5
2
-5
-6
-7
-2
-5
-6
-7
-4
0
3
-3
-3
-3
2
3
0
1
2
1
2
4
2
1
6
3
6
0
1
3
7
3
2
2
2
4
-2
-3
2
4
4
2
0
-2
-1
3
-2
-4
-5
-5
-9
-7
-9
-9
-7
0
-5
-8
-4
0
-3
-7
-8
-6
-1
0
-3
-5
-3
-1
2
0
-4
-4
-1
-5
-6
-9
-6
-3
-3
-4
-6
-4
-6
-4
-6
-7
-8
-8
-5
-9
-10
-10
-8
-6
-9
-10
-13
-5
-7
-9
-12
-14
-11
-9
-11
-13
-13
-11
-9
-13
-14
-19
-16
-16
-14
-17
-17
-13
-10
-14
-14
-16
-14
-10
-14
-15
-16
-14
-11
-9
-8
-7
-9
-5
-7
-10
-9
-4
-4
-5
-3
-7
-9
-18
-34
-56
-78
-93
-95
-96
-88
-71
-41
-20
-2
8
14
16
18
12
5
-1
-1
-1
-3
-6
-8
-7
-8
-10
-12
-12
-13
-13
-13
-18
-19
-13
-15
-17
-17
-17
-15
-12
-15
-17
-17
-17
-14
-13
-19
-19
-19
-17
-16
-20
-23
-21
-21
-25
-24
-28
-26
-29
-29
-31
-33
-33
-30
-34
-39
-40
-41
-38
-45
-46
-50
-45
-45
-45
-45
-46
-47
-46
-44
-40
-41
-37
-37
-34
-32
-33
-28
-25
-25
-25
-22
-17
-13
-13
-15
-15
-9
-5
-8
-8
-7
-4
-3
-4
-5
-7
-6
-2
-5
-8
-9
-6
-7
-8
-11
-8
-10
-10
-12
-15
-14
-15
-15
-18
-19
-18
-18
-23
-24
-27
-25
-23
-20
-21
-21
-26
-23
-22
-21
-24
-25
-23
-24
-25
-27
-28
-24
-24
-22
-26
-25
-24
-25
-22
-24
-24
-21
-19
-16
-22
-19
-17
-15
-16
-16
-17
-17
-14
-17
-15
-15
-15
-13
-16
-18
-16
-15
-14
-13
-15
-12
-10
-7
-9
-14
-12
-12
-13
-16
-18
-17
-16
-10
-12
-12
-11
-10
-9
-8
-9
-11
-7
-4
-9
-9
-7
-6
-5
-5
-5
-5
-1
2
2
0
2
3
3
3
-1
-1
4
4
3
0
6
3
5
4
3
1
5
4
4
3
-2
7
7
2
3
4
4
6
5
3
1
3
6
1
-2
-5
-5
-5
-4
-5
-5
-5
3
2
2
1
8
12
11
12
15
17
18
18
16
17
19
21
24
19
20
28
32
34
27
19
2
-16
-36
-57
-68
-62
-53
-33
-14
15
33
47
53
54
52
47
48
39
36
34
35
35
33
27
29
29
29
26
21
22
22
24
23
19
20
22
21
22
15
12
15
15
18
12
11
14
12
14
11
12
10
12
10
8
9
10
8
10
8
8
7
6
3
0
-7
-7
-3
-5
-10
-11
-10
-9
-11
-16
-17
-16
-10
-13
-14
-12
-10
-5
-5
-5
-4
3
8
11
12
17
19
23
22
23
24
24
25
26
22
23
25
27
27
26
23
27
32
28
28
29
28
26
28
26
23
21
22
19
17
15
13
18
17
15
11
17
17
16
13
12
16
15
16
14
12
16
17
13
12
11
14
17
16
14
11
16
17
14
10
5
8
10
7
6
5
2
7
7
4
3
4
4
3
3
1
5
1
2
1
0
4
5
1
2
1
0
3
0
-4
-3
-4
-5
-2
-5
-8
-7
-1
2
-3
-4
-3
-2
-3
-9
-10
-6
-4
-6
-8
-8
-6
-6
-13
-11
-13
-11
-9
-7
-10
-13
-8
-7
-6
-12
-10
-7
-5
-6
-6
-8
-6
-10
-10
-12
-13
-11
-8
-11
-13
-14
-12
-11
-11
-16
-17
-13
-13
-19
-20
-19
-17
-17
-19
-21
-21
-17
-19
-17
-21
-20
-19
-19
-19
-20
-21
-20
-21
-19
-21
-22
-20
-18
-21
-25
-26
-25
-23
-24
-26
-26
-22
-18
-19
-24
-25
-24
-21
-20
-24
-22
-23
-21
-20
-19
-21
-18
-17
-19
-16
-19
-19
-15
-17
-18
-17
-12
-18
-25
-39
-60
-79
-93
-102
-109
-100
-82
-57
-35
-12
-5
6
12
11
6
1
-3
-5
-8
-11
-12
-11
-9
-13
-17
-15
-15
-13
-12
-17
-16
-17
-9
-12
-15
-15
-17
-17
-21
-23
-22
-24
-22
-22
-26
-28
-26
-25
-24
-30
-32
-30
-27
-29
-32
-36
-33
-35
-35
-37
-39
-39
-39
-38
-41
-44
-45
-42
-40
-45
-47
-48
-48
-50
-52
-52
-52
-46
-46
-47
-45
-40
-37
-31
-31
-28
-22
-18
-17
-16
-13
-8
-7
-7
-7
-13
-7
-4
-5
-8
-7
-4
-5
-3
-6
-6
-5
-2
-4
-5
-7
-8
-6
-7
-9
-13
-8
-7
-9
-13
-11
-9
-8
-9
-8
-8
-9
-5
-2
-9
-11
-8
-6
-6
-8
-7
-4
-3
-5
-7
-6
-7
-5
-9
-9
-13
-13
-15
-16
-21
-20
-17
-19
-20
-22
-25
-24
-23
-24
-23
-24
-18
-19
-20
-25
-26
-25
-20
-20
-20
-25
-20
-17
-17
-23
-22
-17
-17
-17
-17
-16
-13
-15
-13
-15
-17
-14
-13
-10
-11
-13
-12
-10
-11
-9
-9
-13
-8
-9
-14
-17
-12
-11
-8
-11
-8
-6
-6
-9
-9
-9
-9
-7
-9
-10
-10
-8
-4
-4
-5
-5
-3
-3
-5
-7
-6
-7
-3
-5
-4
-6
-2
2
-2
0
-3
-2
0
0
-5
-7
-8
-8
-8
-14
-14
-11
-10
-11
-11
-13
-13
-11
-11
-10
-14
-11
-6
-11
-11
-11
-8
-11
-6
-2
-8
0
-1
1
-2
-4
-2
4
6
2
4
8
8
6
3
4
1
4
3
-2
-1
3
7
14
11
3
-7
-22
-44
-69
-84
-92
-88
-74
-55
-33
-10
14
26
30
31
35
31
26
21
16
17
15
11
6
7
7
10
9
9
6
6
8
7
4
-1
-1
2
0
-5
-5
-3
0
1
-2
-5
-5
0
-3
-2
-3
-2
-1
-2
-3
-3
-3
-3
-6
-8
-12
-11
-11
-14
-15
-16
-19
-22
-22
-24
-26
-27
-25
-29
-28
-29
-26
-25
-23
-26
-27
-23
-20
-17
-18
-16
-9
-5
-2
1
6
9
11
15
15
17
22
22
26
26
26
29
30
33
28
28
27
29
31
28
27
28
31
31
27
25
24
26
27
25
21
23
24
23
18
20
20
21
21
17
15
20
24
21
17
20
22
29
29
25
27
30
29
28
25
24
23
24
23
23
23
26
29
27
24
21
24
24
27
22
19
23
21
21
20
18
20
24
19
16
20
18
25
25
25
25
24
23
24
19
17
20
24
19
20
15
15
22
19
13
13
10
13
14
9
12
10
14
15
13
13
10
16
16
11
12
13
14
11
12
7
8
11
10
7
3
4
6
7
-1
0
2
4
1
-4
-6
-1
0
-2
-6
-6
-7
-2
-4
-6
-6
-8
-7
-9
-9
-10
-9
-8
-9
-10
-11
-8
-6
-5
-10
-12
-11
-7
-9
-13
-13
-10
-13
-15
-16
-20
-19
-18
-17
-20
-25
-23
-22
-22
-25
-25
-23
-21
-16
-17
-18
-20
-16
-16
-18
-16
-15
-10
-12
-15
-15
-14
-13
-10
-15
-12
-14
-10
-7
-6
-7
-8
-12
-23
-45
-67
-85
-91
-98
-98
-83
-58
-35
-13
5
14
19
18
18
16
5
6
-1
-3
-6
-9
-9
-7
-10
-9
-13
-12
-11
-11
-14
-22
-18
-16
-16
-19
-20
-16
-14
-11
-17
-18
-18
-15
-17
-20
-23
-19
-19
-18
-18
-22
-21
-21
-22
-26
-31
-29
-26
-31
-32
-37
-36
-35
-36
-38
-41
-40
-39
-38
-43
-42
-42
-41
-39
-41
-45
-37
-37
-32
-34
-33
-26
-20
-19
-18
-15
-14
-9
-6
-6
-5
0
2
5
5
1
3
7
7
7
5
5
10
9
5
4
6
4
3
3
1
1
3
2
0
0
2
2
-1
-5
-5
-4
-5
-2
-7
-9
-4
0
0
-3
-4
-3
0
0
-5
-4
-7
-4
-7
-6
-13
-9
-11
-12
-11
-10
-8
-12
-8
-8
-13
-10
-9
-7
-11
-11
-10
-9
-8
-8
-12
-10
-11
-9
-8
-11
-13
-10
-13
-15
-16
-19
-15
-14
-16
-14
-15
-14
-14
-17
-16
-17
-14
-17
-15
-21
-19
-18
-18
-21
-16
-17
-16
-17
-18
-21
-20
-16
-19
-20
-21
-20
-19
-22
-22
-21
-20
-15
-17
-17
-20
-23
-16
-17
-21
-22
-18
-18
-12
-15
-21
-21
-15
-19
-20
-24
-20
-22
-19
-21
-22
-22
-19
-19
-25
-22
-27
-24
-23
-27
-28
-25
-26
-21
-24
-21
-24
-20
-20
-23
-20
-20
-19
-21
-22
-24
-27
-21
-25
-26
-28
-28
-25
-23
-24
-24
-23
-21
-20
-20
-20
-20
-16
-17
-18
-17
-20
-16
-17
-16
-19
-17
-17
-19
-18
-16
-16
-12
-13
-12
-11
-5
-4
-9
-22
-45
-61
-81
-97
-104
-99
-85
-59
-35
-16
1
14
20
22
18
11
10
6
0
-1
-8
-7
-7
-8
-12
-12
-12
-10
-10
-10
-12
-11
-10
-9
-11
-9
-10
-9
-11
-9
-12
-13
-11
-13
-13
-18
-20
-13
-11
-9
-13
-16
-13
-12
-17
-19
-16
-19
-17
-24
-24
-27
-26
-28
-28
-30
-33
-33
-31
-35
-36
-34
-34
-35
-34
-34
-37
-32
-32
-29
-31
-24
-18
-16
-15
-13
-6
0
2
6
6
6
14
18
12
13
16
20
20
19
17
19
21
19
20
18
24
24
26
24
24
23
24
26
26
22
19
23
24
20
19
17
19
20
18
13
16
20
18
16
13
15
19
19
21
17
20
20
19
19
15
19
21
20
17
15
17
25
19
19
18
19
21
20
17
15
17
20
19
17
17
18
20
20
20
15
13
17
20
17
12
14
18
17
17
13
17
16
20
15
14
13
13
17
13
12
12
17
17
16
14
12
14
14
12
8
8
11
14
7
7
8
12
12
9
10
7
14
7
7
12
8
9
9
5
8
8
11
14
10
12
12
17
13
11
8
10
9
9
9
11
12
13
15
14
10
15
13
19
14
14
15
19
13
12
11
7
8
9
9
10
10
11
10
7
6
6
8
8
3
0
4
4
8
4
4
3
12
10
5
5
8
12
12
12
12
12
16
17
16
16
14
12
11
11
5
7
8
12
8
8
7
-5
-18
-39
-63
-78
-83
-84
-79
-60
-36
-13
8
18
24
26
23
24
15
7
9
7
6
1
0
0
1
0
-2
-3
2
0
-2
-6
-7
-6
-5
-8
-8
-14
-13
-12
-13
-14
-16
-16
-16
-13
-15
-18
-18
-15
-16
-16
-22
-21
-22
-19
-19
-24
-27
-23
-25
-30
-30
-31
-28
-30
-33
-33
-34
-35
-32
-38
-42
-43
-40
-39
-41
-42
-42
-38
-35
-36
-38
-35
-28
-22
-22
-19
-17
-11
-8
-9
-6
-3
0
-1
1
1
2
6
7
4
5
6
12
7
5
10
7
7
9
3
3
2
3
2
2
-1
-4
1
2
-5
-7
-3
1
-1
-6
-8
-7
-5
-3
-9
-7
-7
-4
-4
-5
-7
-8
-2
-2
-4
-9
-9
-4
-4
-8
-13
-7
-6
-6
-6
-8
-5
-3
-5
-6
-11
-6
-6
-4
-7
-10
-6
-6
-2
-7
-6
-9
-5
0
-7
-3
-7
-3
-1
-6
-6
-9
-3
-4
-4
-6
-6
-5
-7
-11
-12
-9
-13
-11
-14
-12
-11
-6
-7
-8
-9
-8
-1
2
-7
-5
-7
-7
-5
-6
-12
-13
-13
-13
-13
-14
-14
-8
-9
-8
-9
-13
-8
-7
-13
-13
-11
-13
-12
-12
-13
-14
-13
-12
-15
-16
-17
-15
-15
-21
-20
-16
-15
-19
-18
-19
-14
-14
-13
-14
-14
-12
-12
-9
-14
-15
-16
-12
-12
-12
-14
-13
-10
-9
-12
-13
-17
-12
-12
-16
-16
-16
-13
-11
-18
-18
-17
-17
-12
-14
-15
-13
-14
-13
-13
-17
-13
-13
-13
-11
-14
-14
-15
-14
-15
-16
-15
-15
-10
-12
-19
-17
-11
-4
-6
-9
-11
-20
-33
-56
-78
-91
-97
-97
-89
-70
-49
-24
-5
5
9
16
15
11
5
1
-3
-2
-3
-9
-7
-10
-13
-10
-13
-13
-12
-10
-7
-8
-15
-13
-10
-9
-12
-14
-15
-11
-11
-12
-15
-11
-9
-9
-12
-12
-13
-13
-13
-15
-17
-16
-16
-16
-20
-25
-24
-24
-25
-29
-32
-32
-33
-30
-37
-39
-35
-35
-36
-38
-41
-42
-42
-40
-41
-43
-43
-40
-35
-36
-37
-32
-29
-23
-22
-23
-21
-13
-10
-12
-13
-10
-4
-5
-5
-6
-6
-4
1
-5
-6
-6
-2
-5
-4
-8
-4
-4
0
-3
-7
-8
-4
-6
-13
-9
-8
-6
-8
-3
-5
-6
-4
-7
-6
-9
-9
-7
-7
-6
-9
-6
-4
-7
-6
-5
-7
-3
-1
-3
-5
-7
-4
-5
-7
-10
-9
-7
-11
-10
-11
-12
-12
-13
-10
-11
-15
-12
-13
-17
-16
-16
-12
-13
-13
-16
-19
-15
-13
-15
-19
-17
-16
-16
-15
-18
-16
-13
-14
-15
-17
-12
-8
-8
-13
-14
-15
-9
-7
-7
-12
-11
-11
-3
-9
-7
-9
-3
-5
-5
-8
-8
-6
-3
-7
-8
-9
-7
0
-4
-4
-5
1
-3
-1
1
-1
3
4
3
1
-5
-1
2
3
0
2
3
6
-1
-2
-2
4
5
0
2
1
5
1
1
-1
1
3
3
-1
0
-1
2
4
-1
-3
2
5
6
2
1
2
3
6
5
4
4
10
11
14
12
14
15
15
13
9
9
12
15
12
9
12
11
18
14
9
9
12
12
9
9
12
14
18
14
3
-13
-28
-51
-71
-82
-82
-80
-59
-37
-17
8
24
35
36
38
37
30
27
21
21
18
18
15
18
15
14
15
17
18
12
14
15
17
15
10
10
13
12
11
5
5
7
9
9
4
5
8
6
1
3
4
3
6
2
-3
-3
2
2
-2
-7
-5
-2
-6
-9
-12
-11
-12
-9
-13
-17
-17
-20
-17
-20
-21
-20
-21
-16
-20
-19
-21
-15
-13
-9
-9
-6
-2
10
8
10
10
16
17
20
13
18
21
24
22
23
21
25
28
21
24
25
24
23
24
24
19
24
24
23
21
17
23
20
22
17
15
17
16
19
13
14
17
13
17
14
19
18
21
22
17
14
16
15
13
12
10
14
13
11
8
8
7
13
12
8
10
9
9
10
12
8
9
10
8
4
9
9
9
8
6
4
5
9
3
1
2
7
5
6
4
6
7
8
7
4
3
9
6
3
3
3
2
6
-1
-5
-4
-2
-1
-3
-7
-4
-5
-4
-5
-8
-5
-5
-10
-11
-12
-15
-15
-14
-10
-16
-14
-12
-11
-14
-17
-16
-10
-13
-10
-17
-15
-13
-10
-11
-13
-11
-10
-9
-12
-17
-16
-13
-13
-12
-15
-16
-12
-13
-14
-17
-13
-11
-8
-11
-11
-13
-12
-13
-10
-13
-15
-11
-10
-13
-15
-15
-15
-13
-15
-16
-17
-15
-14
-15
-16
-14
-13
-11
-12
-14
-12
-13
-12
-14
-15
-16
-16
-14
-12
-14
-17
-10
-12
-12
-17
-14
-6
-4
-4
-12
-17
-30
-48
-68
-89
-100
-101
-93
-78
-58
-34
-10
5
13
12
11
12
7
4
-3
-5
-5
-1
-4
-8
-13
-9
-11
-10
-12
-12
-14
-11
-12
-13
-16
-13
-10
-15
-17
-16
-13
-10
-12
-13
-13
-8
-9
-13
-13
-15
-16
-14
-13
-18
-20
-17
-15
-23
-23
-30
-27
-28
-33
-33
-33
-36
-33
-37
-39
-38
-40
-40
-43
-43
-42
-43
-41
-40
-44
-43
-39
-38
-36
-35
-31
-25
-21
-17
-20
-17
-13
-9
-8
-3
-2
5
6
6
4
2
7
7
10
8
7
7
9
3
4
5
6
10
10
8
9
7
12
8
6
4
3
6
4
5
0
5
2
3
1
-1
1
2
1
-3
-3
-5
1
-3
-4
-7
-5
1
-5
-11
-8
-5
2
-3
-4
-5
0
-1
-4
-5
-4
-4
-2
-4
-6
-3
-7
-1
-6
-7
-7
-5
-2
-3
-5
-9
-4
-7
-9
-9
-9
-8
-9
-4
-9
-8
-5
-7
-6
-6
-9
-11
-7
-8
-10
-10
-10
-6
-8
-9
-11
-9
-8
-8
-9
-10
-6
-7
-9
-12
-14
-11
-11
-13
-13
-15
-11
-8
-10
-10
-14
-13
-11
-10
-16
-17
-18
-17
-18
-17
-21
-20
-17
-18
-19
-16
-17
-19
-19
-19
-19
-21
-17
-16
-21
-21
-18
-17
-21
-20
-25
-21
-16
-19
-21
-20
-19
-19
-21
-25
-20
-22
-19
-17
-21
-16
-17
-21
-21
-25
-29
-26
-25
-29
-32
-28
-28
-23
-25
-24
-24
-25
-24
-28
-28
-31
-32
-29
-33
-34
-34
-32
-31
-28
-33
-35
-29
-31
-30
-26
-26
-27
-29
-42
-58
-82
-100
-112
-117
-117
-105
-81
-53
-35
-18
-7
6
5
5
4
-7
-9
-7
-12
-14
-15
-12
-10
-12
-12
-14
-13
-9
-9
-12
-12
-13
-13
-12
-13
-16
-15
-15
-16
-19
-20
-16
-15
-13
-17
-16
-12
-14
-14
-16
-16
-14
-16
-16
-21
-25
-23
-21
-22
-25
-27
-24
-24
-25
-28
-26
-27
-24
-28
-29
-33
-33
-32
-30
-34
-34
-34
-31
-29
-29
-28
-21
-18
-12
-14
-9
-6
-1
0
5
7
13
15
17
18
16
20
24
20
19
19
20
19
18
18
20
20
19
24
18
17
17
20
18
14
15
18
18
18
17
14
19
22
24
18
19
20
19
19
18
18
21
24
22
19
20
18
20
19
16
17
21
22
23
21
23
23
27
27
23
23
24
24
23
22
24
25
25
21
20
17
17
19
15
13
13
16
18
16
12
12
12
13
12
7
7
7
11
11
8
5
6
7
8
1
2
4
7
5
8
5
4
4
6
4
2
3
4
3
2
1
1
3
4
3
2
4
6
8
8
6
5
7
9
5
6
7
10
5
4
2
3
5
5
2
1
7
6
8
2
5
4
9
11
4
5
10
8
5
3
5
3
6
4
1
2
3
4
4
0
-3
0
4
1
-3
0
-3
4
3
0
0
1
-1
0
-1
-3
1
3
4
-2
0
1
1
2
-5
-6
-6
-2
0
-5
-9
-3
1
4
5
4
-3
-13
-35
-57
-77
-88
-91
-84
-75
-52
-26
1
16
21
22
30
27
26
16
12
9
7
3
-3
-5
-3
-1
-2
-3
-7
-5
-5
-5
-8
-9
-9
-9
-11
-12
-11
-11
-7
-8
-13
-11
-8
-6
-4
-6
-6
-5
0
-4
-9
-9
-6
-6
-7
-11
-15
-13
-11
-13
-16
-21
-19
-18
-20
-22
-25
-22
-23
-24
-31
-33
-30
-28
-27
-29
-30
-27
-24
-23
-25
-23
-17
-12
-11
-10
-8
-4
-2
4
1
3
6
12
9
10
11
7
12
9
8
9
8
11
10
5
5
8
9
7
6
6
8
8
8
7
7
9
10
7
3
3
4
9
10
7
8
7
8
8
7
6
8
10
11
6
8
7
9
9
7
6
6
10
9
4
3
4
5
1
4
0
-3
-1
-1
-4
-9
-5
-5
-7
-5
-8
-5
-4
-2
-9
-11
-7
-8
-10
-13
-12
-7
-9
-6
-11
-9
-8
-3
-5
-4
-7
-6
-5
-8
-13
-13
-10
-11
-7
-9
-11
-7
-8
-11
-12
-11
-9
-4
-6
-8
-10
-7
-7
-8
-13
-10
-10
-8
-10
-10
-8
-7
-8
-9
-9
-13
-9
-7
-6
-7
-6
-8
-8
-11
-10
-10
-8
-9
-8
-12
-10
-10
-9
-8
-11
-15
-12
-13
-16
-19
-20
-18
-14
-20
-19
-18
-17
-15
-13
-18
-18
-18
-14
-13
-18
-17
-15
-12
-13
-14
-15
-15
-13
-14
-18
-21
-20
-14
-17
-16
-23
-17
-14
-16
-15
-15
-11
-12
-12
-13
-13
-14
-12
-11
-16
-14
-11
-10
-9
-10
-9
-6
-5
-3
2
2
-6
-15
-28
-55
-75
-90
-95
-94
-90
-71
-48
-26
-4
8
16
22
24
22
13
7
6
8
6
-1
-2
1
-2
-1
-7
-11
-6
-4
-5
-7
-9
-11
-7
-6
-9
-11
-9
-8
-10
-12
-11
-8
-10
-11
-13
-12
-14
-10
-10
-16
-17
-17
-12
-18
-19
-21
-22
-20
-20
-23
-24
-26
-25
-24
-32
-34
-36
-36
-41
-42
-48
-46
-44
-42
-45
-46
-45
-41
-38
-43
-40
-35
-30
-30
-24
-24
-23
-17
-15
-13
-14
-13
-6
-7
-5
-5
-4
-2
-1
-2
-4
-3
-2
1
-3
0
4
1
-1
-3
-5
-5
-2
-3
-9
-7
-6
-2
-5
-7
-6
-3
0
-3
-2
-5
-2
3
-1
-3
-5
-2
-2
-4
2
0
-3
-2
4
1
-2
-2
1
-2
-4
-8
-6
-7
-5
-9
-8
-9
-5
-6
-5
-4
-4
-2
-3
-7
-5
-3
1
1
-1
-5
0
2
0
-5
-7
-6
-5
-5
-7
-6
-5
-4
-4
-5
-9
-9
0
-2
-5
-6
-5
-3
-5
-6
-11
-4
-5
-7
-7
-7
-5
-3
2
-7
-7
-9
-5
-2
-5
-6
-4
-7
-6
-8
-11
-9
-7
-3
-8
-7
-7
-4
-6
-6
-8
-7
-6
-6
-10
-11
-11
-7
-8
-8
-11
-10
-9
-4
-11
-12
-8
-4
-7
-9
-7
-9
-4
-6
-9
-8
-6
-5
-5
-8
-6
-9
-7
-10
-13
-13
-10
-7
-8
-8
-7
-9
-4
-5
0
-5
-1
4
-2
-1
-5
-5
3
-1
0
-2
-3
7
7
5
2
6
11
12
7
1
-11
-28
-49
-70
-84
-90
-85
-70
-52
-29
-5
13
24
27
24
24
22
13
12
4
4
8
4
2
1
-2
4
2
2
-2
0
1
1
1
3
5
9
13
10
10
9
12
12
6
9
10
11
13
9
5
8
7
7
6
7
7
8
9
3
-1
4
8
2
-6
-9
-8
-9
-10
-14
-16
-15
-14
-18
-18
-21
-19
-17
-20
-21
-24
-19
-18
-12
-17
-17
-13
-9
0
4
4
5
14
16
20
17
15
20
22
19
21
21
24
24
23
20
21
22
23
20
17
17
19
19
17
17
20
20
19
15
20
18
18
20
15
13
15
13
18
14
14
16
18
15
14
15
13
15
16
10
8
7
11
11
13
8
11
13
12
9
5
6
6
10
5
4
2
10
5
4
4
3
4
7
4
4
5
7
6
4
3
2
6
6
2
2
3
4
5
3
1
1
4
6
4
1
0
4
2
0
-1
4
3
5
2
1
0
-1
4
-3
-7
-5
-2
-5
-6
-7
-9
-8
-7
-9
-10
-9
-10
-10
-13
-15
-11
-7
-8
-12
-13
-15
-14
-14
-14
-17
-15
-15
-10
-11
-15
-12
-10
-11
-12
-18
-17
-17
-17
-18
-18
-16
-17
-17
-22
-23
-24
-19
-18
-20
-24
-21
-18
-16
-16
-18
-18
-19
-18
-23
-25
-24
-20
-19
-21
-24
-22
-18
-19
-17
-19
-17
-13
-13
-12
-16
-13
-11
-12
-15
-16
-16
-13
-14
-16
-17
-15
-13
-13
-11
-6
-5
-12
-19
-38
-55
-76
-87
-97
-96
-85
-69
-44
-20
-5
8
15
22
22
12
6
4
-1
-5
-4
-7
-6
-8
-9
-14
-15
-13
-12
-11
-9
-10
-10
-7
-7
-11
-12
-11
-5
-7
-10
-10
-10
-13
-14
-18
-18
-18
-17
-16
-19
-21
-21
-18
-23
-24
-25
-27
-25
-26
-29
-28
-31
-26
-29
-33
-34
-37
-31
-33
-35
-33
-36
-32
-33
-32
-38
-35
-33
-30
-30
-28
-22
-21
-18
-19
-15
-11
-9
-1
-2
-1
4
7
9
9
8
10
13
13
12
8
12
14
14
11
9
10
10
7
6
4
4
6
7
3
0
4
4
4
0
0
1
-1
-1
-6
-6
-2
-4
-3
-5
-10
-11
-5
-4
-5
-8
-9
-6
-2
-7
-7
-6
-8
-4
-6
-6
-7
-2
-4
-7
-6
-8
-9
-7
-5
-5
-5
-2
1
-5
-6
-4
-3
-3
-4
-4
-1
-2
1
-2
-3
2
3
3
0
-1
2
0
0
-2
-3
-4
-3
4
-3
-3
2
2
1
-2
-7
-7
-4
-5
-8
-9
-10
-8
-5
-7
-11
-5
-9
-4
-9
-8
-10
-8
-7
-8
-9
-7
-6
-10
-9
-10
-8
-8
-11
-13
-12
-12
-8
-9
-11
-8
-11
-9
-9
-13
-10
-11
-8
-9
-9
-13
-17
-12
-14
-15
-17
-16
-14
-16
-18
-16
-15
-13
-11
-11
-16
-14
-14
-13
-16
-20
-18
-18
-14
-18
-19
-20
-16
-19
-18
-23
-22
-17
-21
-20
-21
-17
-14
-12
-18
-16
-15
-11
-10
-13
-14
-12
-9
-9
-9
-12
-10
-9
-10
-11
-11
-11
-6
-6
-4
-8
-11
-22
-35
-60
-83
-95
-104
-95
-88
-68
-46
-21
-4
8
12
13
13
10
2
-7
-7
-10
-10
-15
-21
-22
-25
-27
-23
-27
-25
-24
-24
-26
-24
-20
-20
-12
-17
-19
-18
-21
-14
-17
-18
-19
-19
-16
-19
-16
-18
-14
-13
-18
-20
-20
-19
-17
-20
-22
-16
-20
-16
-23
-26
-31
-29
-33
-39
-40
-41
-41
-40
-45
-49
-49
-45
-44
-43
-48
-43
-42
-40
-40
-41
-36
-31
-28
-26
-23
-18
-14
-11
-8
-8
-3
3
6
8
8
9
8
7
9
7
5
7
9
4
5
5
7
9
8
5
8
10
10
12
10
9
11
9
7
4
7
8
5
7
3
1
-1
1
-3
-6
-1
2
4
-1
-5
-2
0
2
5
1
5
7
8
6
3
4
8
5
3
2
2
3
7
5
4
8
11
13
9
8
8
9
9
9
7
7
5
7
7
7
7
11
11
10
9
10
14
14
18
17
21
23
22
22
23
23
23
25
24
23
20
22
23
19
19
21
22
20
16
13
13
14
16
14
14
11
18
16
15
11
10
14
14
12
7
10
6
7
7
7
3
10
10
9
8
5
7
8
9
7
9
8
14
8
8
3
8
3
1
2
3
6
9
9
8
8
9
11
7
10
10
11
12
10
6
8
11
13
12
10
11
20
18
19
16
16
17
16
16
16
14
19
20
17
17
16
18
18
17
17
21
21
17
7
-13
-31
-52
-65
-72
-80
-70
-51
-25
-6
16
29
38
38
39
35
31
26
27
21
14
15
11
14
10
7
8
8
9
8
3
4
8
7
3
-4
-3
-2
0
-3
-7
-7
-3
-5
-5
-6
-3
-3
-4
-5
-7
-5
0
0
-4
-7
-9
-8
-8
-7
-10
-11
-13
-12
-10
-16
-17
-15
-18
-23
-24
-25
-23
-24
-28
-28
-26
-25
-24
-27
-28
-25
-19
-16
-15
-13
-6
-4
3
4
4
8
9
11
8
8
12
10
12
8
8
10
10
10
9
7
8
10
10
8
6
4
6
4
-1
-5
-7
-4
-3
-3
-8
-9
-9
-8
-10
-11
-9
-8
-9
-12
-14
-14
-12
-8
-10
-11
-5
-5
0
-3
-8
-10
-7
-6
-6
-9
-8
-3
-3
-5
-8
-9
-5
-7
-11
-13
-13
-12
-7
-10
-12
-10
-9
-5
-6
-9
-9
-7
-8
-10
-11
-15
-13
-10
-10
-12
-17
-13
-10
-14
-12
-12
-9
-9
-12
-11
-12
-9
-10
-10
-12
-12
-10
-11
-17
-17
-16
-14
-14
-17
-25
-22
-21
-18
-22
-23
-20
-17
-16
-19
-19
-22
-17
-15
-19
-20
-21
-20
-21
-19
-24
-22
-17
-16
-21
-19
-16
-17
-12
-17
-22
-18
-17
-19
-19
-23
-23
-20
-18
-19
-20
-18
-17
-12
-14
-15
-17
-19
-16
-18
-20
-18
-17
-17
-16
-16
-17
-14
-12
-19
-21
-16
-16
-17
-19
-22
-22
-21
-23
-23
-27
-25
-20
-16
-18
-22
-20
-17
-16
-16
-21
-20
-20
-19
-18
-16
-14
-12
-12
-14
-16
-18
-18
-14
-15
-19
-17
-11
-7
-8
-12
-26
-42
-60
-81
-92
-97
-91
-76
-55
-31
-11
7
20
24
24
20
16
15
8
5
5
5
7
3
8
7
6
6
7
6
3
4
6
2
-2
2
3
5
0
-3
0
1
2
0
-3
-4
-2
-3
-4
-7
-3
-7
-4
-3
-9
-8
-8
-9
-9
-13
-12
-12
-15
-21
-21
-26
-26
-27
-31
-33
-37
-35
-35
-33
-40
-40
-36
-32
-37
-36
-36
-33
-30
-32
-31
-28
-25
-13
-12
-14
-7
-5
0
1
3
4
6
10
7
6
10
7
9
11
7
9
13
14
14
9
10
13
9
12
10
7
9
8
9
4
5
5
7
4
0
1
5
4
3
-1
4
4
7
6
-2
-2
3
2
3
-1
0
7
5
4
2
0
1
4
2
0
3
3
3
0
0
-1
-3
0
-5
0
-6
-5
-1
2
-6
-6
-1
-2
-5
-6
-9
-6
-5
-6
-12
-12
-15
-11
-12
-16
-12
-10
-11
-12
-15
-17
-11
-12
-13
-18
-16
-15
-17
-14
-18
-18
-17
-15
-14
-16
-16
-14
-15
-13
-15
-13
-12
-11
-11
-12
-13
-10
-12
-13
-13
-16
-15
-14
-19
-21
-21
-20
-20
-19
-22
-24
-22
-19
-25
-24
-25
-21
-19
-19
-21
-20
-16
-16
-16
-21
-20
-19
-14
-17
-25
-26
-25
-23
-27
-29
-26
-25
-20
-24
-25
-22
-20
-20
-23
-22
-21
-20
-21
-21
-21
-20
-19
-16
-16
-19
-21
-21
-20
-18
-20
-19
-16
-13
-18
-20
-20
-21
-22
-25
-28
-26
-29
-24
-25
-29
-29
-27
-27
-28
-31
-29
-28
-28
-32
-30
-29
-24
-18
-17
-24
-38
-50
-72
-91
-104
-110
-100
-83
-60
-40
-19
2
11
18
15
11
10
6
4
-2
-6
-4
-2
-2
-5
-6
-5
-5
-6
-10
-9
-8
-5
-6
-8
-6
-6
-7
-6
-6
-7
-1
0
-2
-5
-6
-5
0
-1
-7
-8
-3
-5
-9
-9
-10
-10
-5
-8
-13
-12
-11
-10
-13
-18
-18
-16
-19
-24
-24
-26
-26
-24
-28
-31
-32
-30
-28
-29
-29
-29
-28
-25
-19
-18
-17
-12
-5
-3
-5
0
8
12
10
16
21
23
28
30
31
33
35
38
40
36
35
40
42
37
37
35
37
39
34
32
29
33
33
33
27
32
31
30
31
28
26
27
32
30
29
25
27
29
25
24
25
23
27
22
18
21
23
26
25
22
18
24
24
26
19
19
22
24
18
17
16
18
20
17
12
13
17
19
16
17
19
19
18
19
15
24
23
21
21
18
19
22
23
21
16
15
18
22
19
17
16
16
21
20
17
15
22
20
15
17
17
18
20
18
17
18
19
17
18
11
16
17
20
19
12
12
16
13
15
13
15
14
17
18
12
14
16
16
16
11
10
10
12
12
3
7
10
8
8
5
6
6
6
3
1
4
6
8
7
1
1
4
5
5
2
1
5
5
5
1
-1
-1
1
-2
0
-2
2
0
0
-8
-9
-8
-8
-9
-15
-13
-11
-10
-9
-12
-11
-10
-6
-3
-6
-8
-7
-5
-5
-7
-7
-8
-6
-4
-9
-8
-9
-8
-6
-6
-4
-4
-5
-19
-41
-57
-74
-83
-89
-84
-68
-44
-22
-1
11
20
29
28
29
21
17
14
10
7
8
0
5
3
3
-4
-5
-3
-5
-9
-9
-11
-12
-10
-11
-16
-17
-15
-17
-18
-20
-21
-16
-16
-21
-21
-22
-17
-14
-18
-22
-23
-22
-21
-19
-20
-24
-22
-24
-25
-28
-29
-27
-29
-27
-32
-35
-32
-33
-36
-36
-36
-41
-39
-39
-41
-43
-39
-41
-41
-39
-36
-33
-30
-30
-28
-25
-21
-14
-15
-10
-8
-5
2
1
-3
-1
3
6
6
2
6
8
10
9
3
1
4
4
1
-3
-6
-4
-4
-4
-8
-10
-8
-9
-4
-6
-7
-5
0
-3
-8
-6
-5
-2
-1
-5
-5
-1
0
-3
-5
-3
-4
-2
-6
-8
-5
-4
-1
-3
-8
-10
-8
-7
-9
-10
-10
-6
-5
-6
-10
-10
-9
-10
-9
-10
-10
-10
-9
-8
-10
-11
-11
-6
-6
-9
-8
-5
-5
-3
-7
-4
-2
-1
-3
-5
-4
0
0
1
-2
-5
-3
-2
-8
-8
-8
-3
-5
-6
-7
-10
-4
-2
-1
-7
-6
2
-1
-1
-3
-8
-7
-4
-8
-10
-11
-7
-6
-8
-13
-12
-11
-11
-9
-12
-14
-14
-12
-16
-14
-16
-12
-14
-15
-17
-17
-14
-12
-14
-17
-16
-13
-11
-13
-12
-12
-10
-6
-9
-15
-14
-11
-11
-12
-10
-12
-11
-10
-8
-15
-15
-11
-12
-16
-18
-19
-21
-21
-21
-22
-20
-19
-19
-12
-16
-17
-13
-13
-16
-17
-15
-15
-11
-13
-16
-17
-17
-17
-17
-18
-17
-17
-15
-18
-18
-16
-10
-8
-14
-23
-36
-56
-77
-91
-104
-107
-95
-81
-58
-38
-18
-4
10
9
9
5
-1
-2
0
-11
-11
-11
-11
-15
-19
-16
-16
-16
-19
-18
-17
-16
-13
-12
-19
-18
-19
-18
-23
-23
-24
-22
-18
-14
-17
-18
-14
-16
-16
-19
-21
-20
-17
-20
-25
-28
-28
-25
-21
-28
-28
-26
-26
-29
-33
-36
-36
-38
-42
-47
-45
-47
-47
-48
-50
-50
-49
-49
-51
-50
-53
-47
-45
-43
-38
-38
-31
-27
-23
-22
-23
-16
-12
-13
-12
-9
-6
-5
-6
-5
-5
-5
0
-1
-6
-7
-1
-1
0
-4
-7
-4
-4
-3
-6
-4
-3
-5
-2
-4
0
-1
-1
0
-5
-7
0
1
-2
-3
-2
1
-2
-3
-5
-5
-3
-1
1
-5
-2
3
4
3
0
-2
-1
2
3
2
-1
-1
1
1
1
-1
1
3
-1
-3
-2
1
4
3
2
1
-2
6
4
5
0
4
8
9
6
6
5
8
7
3
4
8
9
8
7
7
8
9
7
3
1
3
6
6
3
4
1
7
5
5
3
6
9
6
8
7
9
10
11
9
5
5
4
6
3
2
4
8
5
2
4
9
11
12
9
12
13
16
16
14
12
12
16
16
11
14
15
15
16
12
8
6
9
7
6
4
6
5
2
2
2
5
1
2
-2
-5
4
5
2
1
0
2
2
1
0
-2
0
7
6
0
-1
1
3
-1
-4
-1
3
-1
3
4
3
3
-6
-22
-43
-65
-79
-85
-87
-84
-62
-38
-11
6
19
24
27
26
24
17
15
12
12
9
7
4
6
6
6
6
2
5
7
8
6
3
6
9
9
6
7
9
12
7
3
3
3
4
6
3
3
6
10
9
7
5
8
9
11
3
3
4
6
6
-3
-7
-7
-4
-9
-11
-14
-15
-15
-15
-18
-21
-20
-18
-19
-24
-24
-20
-21
-21
-17
-19
-12
-12
-8
-6
1
8
10
15
15
16
22
28
25
25
26
27
28
27
25
23
25
29
24
19
19
22
23
23
19
20
17
17
20
15
12
14
17
14
11
12
12
15
14
10
9
12
14
12
7
5
12
11
11
11
9
11
12
12
10
7
7
10
7
7
4
8
7
7
7
4
8
7
5
1
0
-2
2
-1
-4
-3
-1
-5
-5
-3
-9
-6
-5
-8
-8
-8
-8
-6
-6
-8
-4
-5
-3
-3
-7
-7
-6
-5
-3
-6
-9
0
-7
-7
-9
-9
-8
-8
-8
-9
-9
-9
-9
-7
-12
-10
-10
-13
-10
-13
-17
-13
-13
-10
-11
-14
-10
-8
-14
-14
-17
-13
-9
-14
-15
-19
-16
-15
-16
-19
-20
-19
-17
-16
-18
-19
-14
-15
-16
-17
-20
-19
-17
-14
-19
-18
-13
-12
-14
-19
-16
-17
-14
-10
-15
-14
-10
-10
-11
-15
-15
-15
-12
-17
-19
-21
-20
-15
-18
-17
-19
-17
-11
-14
-15
-15
-14
-14
-16
-15
-21
-19
-13
-14
-18
-18
-19
-12
-11
-19
-19
-14
-10
-6
-6
-12
-18
-32
-49
-71
-91
-101
-102
-94
-81
-56
-34
-13
5
11
14
15
15
11
3
-5
-6
-2
-7
-10
-9
-8
-6
-5
-8
-10
-8
-6
-6
-13
-12
-11
-11
-8
-9
-12
-8
-7
-7
-9
-5
-11
-9
-10
-12
-17
-13
-13
-13
-15
-20
-19
-17
-20
-23
-28
-27
-23
-25
-28
-28
-30
-26
-30
-33
-34
-38
-33
-36
-41
-43
-40
-40
-42
-48
-42
-40
-41
-40
-40
-32
-32
-26
-20
-21
-21
-17
-12
-10
-6
-8
-4
0
3
3
3
4
7
8
6
1
7
9
9
8
6
6
6
5
4
1
5
8
8
8
6
8
8
5
2
1
4
5
3
3
-2
3
4
6
3
4
0
3
1
1
3
2
3
3
5
-5
0
3
0
-4
-4
-2
2
1
-7
-3
-3
2
3
3
0
-3
3
2
-3
-3
1
4
3
-2
-5
-4
-3
-2
-4
-4
-10
-8
-8
-12
-13
-9
-7
-6
-6
-6
-6
-2
-3
-5
-7
-5
-3
-5
-6
-6
-5
0
-5
-4
-5
-4
1
-2
-7
-7
-6
-6
-5
-7
-12
-10
-11
-8
-13
-12
-12
-10
-8
-14
-12
-12
-12
-12
-13
-15
-13
-10
-12
-13
-14
-13
-12
-14
-16
-19
-17
-14
-17
-16
-18
-16
-15
-14
-21
-20
-19
-16
-19
-20
-24
-23
-24
-21
-24
-27
-25
-24
-23
-26
-24
-26
-23
-23
-25
-29
-28
-28
-29
-29
-31
-29
-25
-26
-26
-28
-26
-24
-20
-22
-21
-20
-20
-16
-21
-20
-16
-16
-16
-18
-19
-14
-13
-17
-14
-15
-11
-8
-10
-17
-32
-50
-72
-89
-101
-105
-99
-78
-54
-40
-16
3
14
19
21
15
13
8
5
0
-6
-9
-7
-10
-11
-16
-15
-11
-13
-13
-14
-13
-10
-9
-12
-15
-15
-11
-11
-13
-10
-13
-9
-9
-11
-12
-12
-8
-10
-11
-12
-11
-6
-6
-9
-13
-13
-10
-9
-12
-15
-12
-13
-17
-20
-18
-22
-20
-21
-26
-24
-21
-21
-27
-33
-32
-32
-32
-35
-34
-34
-33
-29
-28
-25
-21
-20
-13
-10
-9
-9
2
7
12
11
13
15
18
21
17
16
19
19
21
18
14
16
17
17
16
17
17
18
20
19
13
17
16
18
11
15
16
13
12
10
12
13
15
16
15
15
17
18
18
13
14
13
12
13
7
9
10
13
12
12
11
11
15
18
16
15
16
18
17
18
18
18
23
15
16
13
13
15
13
10
10
12
12
10
7
6
7
7
9
7
8
9
11
11
11
7
8
11
9
9
9
9
12
14
10
9
6
9
11
7
7
6
9
9
6
6
6
9
10
7
10
8
12
13
9
9
5
12
8
8
8
6
7
6
3
2
3
2
7
3
1
4
3
3
3
0
1
6
3
3
-1
2
6
3
2
0
0
3
4
2
-4
-3
4
2
3
5
4
8
8
4
3
2
4
3
-4
0
-4
1
-4
-7
-3
-2
2
3
4
1
3
4
6
3
0
-1
3
3
1
1
2
6
3
3
-1
6
8
10
12
11
9
4
-13
-33
-55
-70
-76
-78
-69
-52
-29
-5
18
26
35
35
38
32
26
24
17
17
15
9
9
9
12
9
8
5
7
7
10
4
2
4
6
3
4
1
3
6
3
3
-1
0
1
-4
-4
-5
-6
-5
0
-4
-9
-5
-6
-5
-5
-7
-7
-5
-3
-6
-8
-8
-7
-10
-15
-16
-17
-17
-19
-21
-24
-23
-22
-26
-29
-33
-29
-27
-26
-27
-27
-22
-17
-14
-13
-13
-5
-2
2
4
3
5
8
7
7
10
12
11
13
11
11
12
15
12
8
12
7
10
12
11
9
7
9
8
9
5
9
6
5
4
4
4
6
7
3
1
4
5
4
4
0
0
-1
-4
-5
-2
-4
-3
-3
-7
-7
-6
-3
-2
-6
-8
-7
-4
-5
-7
-10
-9
-7
-9
-8
-11
-13
-10
-11
-15
-13
-12
-10
-8
-10
-13
-10
-9
-9
-13
-15
-14
-12
-12
-15
-19
-15
-11
-6
-12
-12
-13
-13
-10
-13
-15
-11
-9
-9
-13
-14
-13
-9
-8
-11
-12
-13
-10
-12
-14
-19
-16
-21
-19
-23
-25
-23
-20
-18
-20
-24
-20
-20
-20
-25
-25
-24
-20
-20
-24
-23
-25
-20
-21
-24
-24
-25
-21
-20
-22
-18
-19
-16
-15
-17
-16
-17
-13
-11
-14
-19
-18
-15
-19
-16
-21
-20
-18
-20
-19
-21
-19
-14
-15
-21
-18
-20
-19
-18
-22
-26
-24
-20
-21
-22
-22
-23
-20
-21
-26
-26
-26
-21
-22
-23
-25
-25
-19
-17
-17
-19
-18
-16
-18
-18
-21
-21
-17
-17
-17
-16
-15
-14
-14
-12
-14
-15
-8
-4
-8
-17
-28
-43
-65
-82
-96
-97
-93
-80
-62
-40
-19
3
15
18
20
16
16
11
6
2
-2
0
-3
-7
-9
-5
-5
-7
-9
-10
-8
-8
-5
-11
-13
-8
-7
-9
-10
-12
-13
-13
-10
-13
-14
-13
-10
-11
-10
-13
-11
-10
-10
-12
-17
-15
-14
-13
-17
-18
-17
-17
-21
-21
-29
-28
-28
-26
-31
-32
-35
-35
-32
-36
-39
-37
-36
-38
-38
-38
-37
-34
-32
-33
-32
-30
-26
-24
-22
-19
-14
-8
-5
0
3
5
5
9
6
7
7
9
9
7
8
9
11
11
7
7
7
10
6
8
3
3
6
9
9
7
8
11
9
10
6
8
8
7
7
4
3
9
8
6
3
5
6
6
7
4
3
8
7
4
4
6
5
6
3
2
0
1
-1
-2
-3
-4
-2
0
0
-4
-2
2
3
-2
-5
-7
-5
-4
-7
-2
-3
-3
-1
-5
-6
-6
-5
0
-6
-5
-8
-8
-4
-12
-13
-10
-11
-10
-14
-13
-12
-11
-11
-12
-15
-12
-15
-13
-17
-17
-13
-14
-13
-16
-19
-17
-18
-17
-21
-21
-21
-20
-19
-20
-23
-23
-19
-18
-21
-21
-21
-22
-20
-21
-25
-20
-17
-19
-20
-24
-24
-22
-21
-23
-25
-26
-24
-22
-22
-25
-24
-20
-20
-22
-23
-24
-21
-21
-19
-20
-22
-21
-14
-18
-22
-19
-15
-16
-17
-16
-17
-19
-15
-20
-20
-17
-14
-14
-14
-14
-9
-13
-9
-14
-12
-12
-10
-10
-8
-12
-11
-7
-6
-9
-14
-13
-11
-10
-12
-15
-11
-3
1
0
-9
-21
-41
-62
-82
-96
-100
-94
-81
-56
-35
-15
3
15
17
19
19
19
15
11
10
7
12
12
11
9
13
9
9
7
7
7
7
9
8
4
4
6
8
3
4
3
8
5
-1
1
1
3
4
2
-1
2
4
6
5
2
-1
4
5
5
-3
-5
-5
-7
-13
-11
-13
-13
-15
-18
-23
-22
-23
-26
-25
-28
-28
-28
-28
-24
-28
-30
-25
-21
-21
-21
-15
-8
-7
-5
-5
4
8
11
15
16
17
20
25
22
18
21
23
23
21
20
19
22
22
19
19
17
19
20
19
14
18
18
20
20
16
20
18
19
16
14
16
12
15
15
15
11
13
14
12
12
11
14
16
12
10
12
14
17
16
13
16
20
17
18
13
16
14
15
13
11
11
16
17
14
9
11
14
16
13
8
12
11
12
11
9
11
11
12
12
9
11
12
13
13
9
10
12
14
9
8
5
8
8
4
3
3
6
7
8
6
5
8
13
11
11
15
14
15
12
10
12
16
16
16
13
15
15
16
12
9
14
13
18
16
11
13
13
13
10
14
15
17
20
16
16
14
16
20
17
12
14
11
11
9
6
5
3
7
7
4
2
6
4
3
1
-2
-1
-4
-7
-6
-6
0
-3
3
-2
2
4
4
-1
-1
2
-1
1
-4
-7
-4
1
-1
-2
-4
-6
-4
-3
-6
-5
-3
0
4
-4
-15
-28
-47
-68
-86
-96
-98
-82
-63
-42
-20
-2
17
22
23
18
14
11
8
3
-1
-3
1
-5
-4
-8
-6
-8
-7
-7
-8
-13
-9
-9
-8
-12
-12
-9
-9
-11
-15
-14
-12
-12
-15
-20
-22
-21
-23
-23
-28
-22
-21
-21
-26
-27
-29
-27
-25
-27
-29
-31
-26
-26
-29
-29
-32
-30
-30
-34
-37
-36
-36
-32
-38
-40
-40
-37
-39
-41
-46
-43
-38
-39
-34
-36
-32
-24
-25
-20
-16
-16
-11
-9
-8
-8
-6
0
1
1
0
4
5
7
5
6
6
6
7
3
-1
2
1
6
3
1
4
4
2
4
0
2
-2
1
2
1
-5
-3
-3
-3
-2
-5
0
1
-3
-5
-5
-2
-2
-5
-8
-6
-6
-4
-5
-9
-6
-2
-2
-5
-9
-9
-5
-9
-8
-10
-10
-6
-6
-9
-12
-7
-7
-5
-7
-11
-15
-12
-12
-14
-12
-13
-9
-6
-8
-11
-14
-11
-7
-9
-10
-11
-6
-5
-12
-13
-12
-5
-7
-7
-10
-10
-9
-7
-8
-11
-10
-7
-6
-9
-11
-10
-8
-9
-10
-9
-12
-10
-7
-9
-12
-13
-8
-9
-10
-14
-11
-10
-8
-12
-14
-12
-10
-8
-11
-12
-15
-17
-13
-15
-17
-14
-12
-9
-8
-12
-12
-9
-11
-12
-13
-10
-11
-10
-13
-13
-14
-12
-8
-11
-11
-10
-10
-9
-9
-12
-13
-15
-13
-20
-18
-16
-15
-15
-14
-17
-15
-13
-12
-14
-12
-12
-13
-9
-16
-17
-18
-12
-15
-17
-18
-19
-18
-14
-21
-18
-20
-17
-16
-13
-10
-12
-13
-21
-41
-63
-81
-92
-95
-95
-79
-63
-35
-10
7
13
18
21
18
13
8
3
0
3
-6
-9
-8
-8
-11
-8
-14
-10
-11
-8
-13
-12
-19
-16
-17
-16
-16
-18
-22
-18
-21
-23
-20
-19
-18
-16
-19
-20
-18
-18
-18
-24
-20
-25
-19
-26
-24
-26
-21
-20
-23
-24
-27
-26
-26
-28
-30
-30
-31
-30
-33
-37
-37
-39
-41
-42
-46
-44
-44
-41
-40
-42
-38
-30
-28
-26
-29
-22
-19
-15
-13
-10
-6
-3
4
-3
-2
1
4
7
1
0
2
3
1
-1
-2
-5
-1
0
-5
-5
-9
-6
-6
-6
-7
-2
-4
-3
-7
-10
-9
-6
-6
-7
-10
-8
-7
-9
-10
-12
-10
-7
-4
-4
-8
-6
-2
-2
-4
-7
-7
0
-3
-4
-9
-7
0
-3
-5
-6
-5
-5
-3
-5
-5
-6
-1
1
1
-8
-9
-11
-14
-14
-16
-19
-16
-17
-15
-18
-16
-15
-13
-16
-17
-17
-14
-13
-17
-20
-18
-15
-15
-15
-17
-17
-17
-13
-12
-12
-15
-9
-9
-13
-12
-13
-8
-6
-4
-8
-5
-6
0
-4
-4
-5
1
0
-2
-5
-2
-2
6
2
1
0
1
7
4
4
3
5
9
6
5
5
9
10
7
8
5
8
7
6
5
6
3
3
2
7
3
5
6
4
1
-1
4
-1
-3
-3
-3
-4
-3
-7
-8
-9
-10
-4
-11
-12
-13
-11
-7
-5
-3
0
0
2
2
4
5
10
9
5
5
3
6
6
7
5
6
9
13
15
17
18
16
9
-9
-29
-47
-65
-74
-80
-77
-67
-39
-12
6
21
32
40
39
39
32
32
26
26
23
23
19
19
22
23
19
19
20
21
15
17
15
17
20
16
13
14
15
16
17
17
18
17
20
15
12
7
14
15
12
10
8
9
10
6
3
2
5
2
-2
-3
-8
-7
-3
-6
-10
-8
-11
-12
-13
-17
-19
-18
-16
-20
-17
-21
-16
-14
-16
-17
-17
-10
-7
-3
-4
4
4
10
14
10
11
17
18
20
22
23
27
27
26
25
24
29
32
29
26
25
28
28
25
21
20
19
23
22
17
19
17
19
15
17
17
17
19
16
15
12
15
12
13
12
10
11
11
11
10
8
10
10
5
4
4
5
6
3
5
3
8
5
3
1
5
6
7
6
3
2
7
7
4
3
4
4
8
5
3
3
2
7
3
4
1
3
2
1
0
-3
-5
-4
-7
-6
-6
-8
-4
-6
-11
-9
-7
-6
-6
-6
-5
-5
1
-4
-4
-5
-3
0
-2
-6
-6
-6
-4
-3
-9
-6
-3
2
-4
-3
-5
-2
0
-4
-6
-5
-1
-3
1
-2
-3
4
6
1
4
4
3
5
3
-2
0
3
1
1
-1
-4
0
-1
-1
-3
-7
-4
-3
-4
-7
-6
-8
-7
-7
-11
-11
-7
-7
-11
-13
-13
-11
-11
-14
-15
-14
-15
-12
-13
-14
-17
-13
-13
-10
-14
-12
-10
-13
-13
-14
-16
-16
-15
-16
-16
-20
-17
-13
-14
-18
-18
-16
-9
-10
-12
-14
-21
-37
-58
-79
-95
-103
-101
-90
-74
-53
-26
-4
8
13
16
18
15
9
6
0
1
-3
-5
-8
-10
-10
-7
-14
-17
-15
-14
-11
-13
-14
-15
-12
-15
-14
-13
-17
-14
-11
-16
-17
-23
-17
-18
-19
-22
-21
-19
-18
-17
-23
-19
-20
-16
-17
-18
-23
-19
-20
-23
-24
-26
-25
-23
-27
-30
-35
-36
-34
-39
-40
-40
-41
-38
-38
-39
-41
-36
-38
-41
-39
-36
-34
-30
-28
-29
-23
-17
-15
-13
-10
-11
-9
-3
1
-4
-5
4
1
3
1
-1
0
3
4
-2
-2
-3
3
4
-4
-2
-3
-1
1
1
1
1
3
-1
-2
-3
0
2
1
1
2
0
1
2
-5
-5
-3
-3
-5
-7
-7
-7
-5
-4
-6
-9
-6
-2
1
-3
-5
1
-1
-6
-9
-9
-6
-9
-7
-9
-12
-11
-8
-8
-13
-10
-10
-8
-7
-10
-12
-10
-10
-13
-15
-12
-10
-7
-9
-9
-11
-5
0
-7
-4
-4
-4
-5
-5
-10
-10
-6
-6
-8
-10
-9
-8
-8
-9
-9
-11
-8
-8
-6
-10
-10
-7
-7
-7
-10
-13
-10
-10
-8
-10
-13
-9
-10
-11
-12
-13
-11
-11
-13
-17
-15
-12
-9
-13
-14
-17
-11
-13
-9
-15
-12
-15
-12
-15
-13
-14
-11
-10
-9
-12
-14
-11
-9
-11
-11
-17
-13
-12
-13
-13
-13
-11
-11
-12
-13
-15
-12
-11
-10
-17
-14
-15
-14
-15
-21
-23
-21
-19
-27
-23
-25
-27
-23
-27
-29
-32
-29
-27
-24
-30
-31
-28
-29
-28
-32
-32
-29
-31
-27
-29
-24
-25
-18
-16
-21
-23
-37
-50
-72
-92
-112
-117
-114
-102
-86
-63
-40
-20
-9
-5
-3
-5
-5
-7
-12
-17
-15
-17
-17
-19
-16
-17
-15
-13
-16
-19
-21
-19
-18
-23
-22
-20
-18
-20
-23
-24
-25
-22
-21
-20
-21
-21
-16
-22
-24
-19
-18
-21
-18
-24
-23
-21
-20
-23
-26
-27
-25
-20
-28
-29
-27
-28
-26
-27
-28
-30
-33
-28
-35
-38
-41
-44
-44
-48
-51
-48
-45
-43
-41
-43
-37
-32
-31
-28
-26
-26
-20
-14
-12
-10
-5
0
5
7
3
8
8
15
11
9
9
12
13
18
16
11
16
15
15
12
12
16
14
14
12
9
11
7
9
9
6
10
10
7
4
5
9
11
11
14
9
0
-27
-57
-84
-107
-120
-131
-142
-152
-159
-162
-163
-168
-168
-168
-162
-160
-157
-158
-158
-159
-152
-148
-147
-145
-142
-138
-136
-131
-130
-125
-119
-118
-118
-115
-113
-109
-103
-101
-98
-95
-87
-83
-81
-80
-72
-69
-66
-67
-63
-60
-56
-55
-56
-54
-50
-43
-45
-41
-39
-32
-28
-25
-29
-26
-21
-20
-18
-21
-19
-13
-10
-9
-7
-6
-3
5
4
6
2
7
11
12
13
16
20
24
26
24
24
25
27
29
26
28
27
30
32
27
31
35
37
40
40
39
42
45
49
47
48
50
50
53
51
50
51
52
52
52
49
51
54
54
51
54
55
60
59
57
58
61
67
67
64
65
70
72
70
66
67
67
69
68
66
65
66
69
70
67
70
75
79
77
70
55
36
17
-7
-16
-18
-11
8
32
52
71
87
100
101
101
94
92
89
84
77
76
74
73
75
72
68
69
70
67
61
61
63
65
64
59
63
65
63
64
62
60
62
61
63
57
58
57
59
58
56
55
54
55
55
51
48
50
49
49
46
41
41
40
35
33
28
27
28
27
21
19
21
23
17
15
9
11
14
9
9
12
11
19
18
16
18
23
26
32
29
29
37
39
39
40
39
46
53
52
49
46
49
49
47
43
41
41
42
41
38
40
39
39
40
34
31
34
35
36
29
34
34
33
32
29
32
32
35
35
33
37
40
39
39
38
35
35
33
33
30
27
25
25
24
24
24
24
25
25
23
22
22
21
20
20
16
18
21
21
19
18
17
17
15
9
8
9
11
11
10
7
8
12
7
7
4
6
4
8
6
4
7
7
10
8
4
8
6
8
6
4
4
5
4
1
1
1
3
1
-5
-6
-5
-6
-8
-10
-11
-10
-9
-9
-9
-12
-13
-10
-8
-11
-17
-14
-16
-14
-16
-17
-16
-16
-16
-16
-18
-15
-13
-19
-22
-22
-20
-19
-16
-23
-23
-24
-21
-21
-24
-27
-28
-23
-24
-27
-28
-29
-28
-26
-29
-30
-32
-28
-31
-34
-36
-35
-33
-31
-37
-35
-33
-30
-33
-34
-37
-35
-30
-28
-32
-31
-32
-27
-28
-33
-28
-23
-24
-23
-29
-31
-28
-29
-29
-32
-33
-33
-29
-28
-29
-30
-25
-20
-19
-20
-29
-33
-43
-65
-87
-104
-109
-107
-100
-82
-60
-35
-11
1
6
8
5
5
-3
-10
-14
-15
-16
-18
-21
-23
-21
-20
-21
-21
-22
-21
-19
-21
-20
-23
-24
-18
-23
-24
-24
-23
-19
-21
-25
-25
-23
-21
-20
-25
-25
-22
-20
-21
-21
-24
-27
-26
-26
-27
-28
-30
-29
-28
-30
-32
-33
-27
-32
-33
-34
-35
-35
-33
-35
-36
-35
-32
-35
-36
-36
-37
-34
-31
-30
-32
-27
-25
-24
-22
-19
-16
-12
-8
-8
-9
-4
-1
-2
4
0
4
4
4
-2
-1
-2
2
2
1
0
6
4
6
2
1
0
1
-3
-4
-7
-4
-2
-7
-4
-7
-6
-4
0
-4
-6
-5
1
-2
-2
-4
-5
-2
-3
-5
-6
-5
0
-3
-5
-3
-3
-3
2
-2
-5
-4
-3
2
-6
-7
-7
0
-4
-3
-4
-5
-7
-6
-9
-9
-6
-4
-4
-5
-8
-5
0
-5
-6
-8
-7
-5
-6
-6
-7
-7
-4
-3
-8
-6
-2
-5
0
-1
-2
-4
-2
-1
-3
-4
-4
0
-3
-2
-4
-5
-4
-6
-9
-10
-8
-7
-4
-8
-9
-5
-2
-2
0
-5
-8
-4
-2
-5
-5
-5
0
-5
-10
-11
-12
-11
-8
-13
-17
-10
-13
-11
-15
-16
-14
-12
-15
-16
-14
-13
-12
-14
-15
-19
-15
-14
-13
-16
-16
-17
-15
-15
-15
-15
-15
-13
-10
-14
-14
-17
-13
-11
-15
-16
-16
-17
-19
-22
-26
-23
-19
-17
-17
-18
-19
-14
-13
-17
-17
-16
-13
-14
-15
-19
-21
-17
-16
-14
-18
-15
-15
-13
-16
-16
-12
-9
-3
-9
-20
-30
-49
-70
-89
-105
-104
-99
-80
-59
-38
-12
8
15
18
16
15
11
8
4
-1
2
2
-3
-7
-10
-9
-13
-12
-17
-17
-17
-16
-15
-21
-24
-25
-24
-20
-23
-29
-24
-25
-26
-29
-29
-30
-30
-30
-31
-33
-34
-30
-31
-30
-35
-29
-29
-29
-29
-31
-28
-29
-27
-33
-37
-39
-36
-36
-40
-45
-41
-42
-45
-46
-50
-53
-47
-45
-45
-44
-41
-41
-37
-40
-39
-35
-29
-22
-19
-18
-15
-11
-4
-5
-3
3
2
5
3
4
6
5
7
4
5
6
8
7
5
4
6
6
1
1
-4
0
3
1
-1
0
1
5
4
1
-5
-5
0
-5
-7
-7
-6
-6
-6
-8
-9
-6
-6
-6
-10
-12
-8
-10
-9
-10
-14
-14
-11
-11
-12
-13
-10
-9
-9
-11
-13
-11
-5
-7
-7
-7
-9
-4
-6
-9
-11
-10
-7
-7
-6
-9
-5
-6
-9
-13
-24
-22
-23
-24
-28
-34
-35
-33
-33
-32
-35
-32
-28
-31
-31
-32
-35
-32
-34
-37
-35
-36
-33
-27
-28
-32
-30
-25
-23
-25
-23
-20
-20
-18
-19
-18
-15
-11
-10
-14
-10
-8
-8
-7
-10
-11
-12
-12
-9
-15
-14
-8
-13
-8
-8
-14
-11
-8
-7
-12
-8
-11
-6
-5
-6
-8
-7
-2
-6
-6
-2
1
4
3
1
1
0
1
2
-4
-7
-4
-3
-2
-4
-6
-1
1
3
3
2
4
6
6
8
5
8
12
12
12
10
11
13
13
12
12
13
14
19
22
21
20
14
2
-21
-49
-64
-76
-76
-71
-56
-30
-2
22
37
48
53
56
56
52
43
43
37
39
38
36
34
36
35
32
29
26
29
30
25
24
23
26
27
24
23
25
26
25
28
24
24
27
26
26
20
23
24
23
22
20
21
22
21
21
17
16
18
15
16
11
10
12
10
3
4
6
6
3
1
-1
0
3
2
-3
-5
-5
2
2
5
-2
2
5
7
7
13
14
19
22
20
23
27
32
36
38
38
38
39
39
37
39
38
42
42
41
37
40
40
41
38
36
40
36
35
35
31
28
27
31
28
27
25
29
29
27
26
26
28
25
24
21
22
24
26
18
15
16
16
20
20
13
16
17
17
16
14
16
14
16
11
9
7
12
12
7
7
6
7
10
4
3
2
3
5
4
-3
2
6
1
-1
-2
0
6
1
4
-3
1
2
2
-5
-7
-5
-2
-2
-3
-8
-9
-7
-6
-9
-7
-4
-4
-2
-9
-10
-9
-7
-9
-9
-14
-9
-10
-9
-12
-13
-12
-8
-11
-9
-10
-17
-11
-11
-14
-14
-17
-12
-11
-12
-12
-14
-13
-11
-12
-13
-13
-8
-12
-13
-17
-13
-11
-12
-12
-15
-15
-13
-8
-12
-14
-13
-12
-8
-12
-13
-12
-12
-10
-12
-16
-15
-12
-15
-15
-16
-20
-19
-19
-18
-17
-16
-14
-14
-13
-16
-15
-14
-12
-15
-19
-16
-12
-14
-13
-17
-16
-17
-18
-18
-21
-25
-16
-17
-14
-15
-17
-29
-43
-63
-84
-98
-105
-104
-98
-82
-56
-32
-10
3
7
11
11
12
8
1
-3
-6
-6
-5
-4
-7
-7
-8
-11
-15
-15
-12
-13
-16
-17
-15
-17
-15
-17
-17
-17
-17
-14
-18
-19
-19
-17
-19
-23
-20
-20
-20
-19
-23
-27
-23
-22
-21
-25
-24
-29
-26
-27
-29
-36
-35
-35
-32
-33
-36
-42
-42
-43
-46
-51
-51
-48
-50
-52
-55
-51
-50
-48
-46
-47
-45
-40
-37
-35
-34
-28
-21
-18
-19
-17
-12
-8
-6
-6
-7
-5
0
-2
-1
-9
-2
-4
-7
-4
-6
-3
-3
2
1
-5
-1
2
-2
-4
-6
-4
-3
-4
-5
-6
-9
-6
-7
-5
-7
-9
-5
-1
-5
-9
-6
-4
-5
-6
-4
-5
-2
-3
-2
-1
-3
-1
4
3
0
0
1
6
2
1
-1
3
4
0
2
-2
1
3
2
-3
-3
4
4
0
-1
4
3
5
1
-4
-4
-1
1
0
-4
-1
1
1
1
-3
-4
-1
3
-1
2
1
2
4
3
-2
2
2
4
0
2
-2
1
1
-5
-4
-6
-7
-5
-6
-8
-10
-8
-6
-4
-2
-6
-3
-2
0
-4
-8
-4
0
1
-3
-2
-2
0
1
-6
-4
-5
-3
-6
-10
-10
-7
-7
-8
-8
-8
-8
-7
-12
-11
-11
-8
-9
-11
-14
-17
-11
-8
-11
-12
-12
-13
-17
-19
-23
-21
-23
-22
-23
-25
-24
-25
-22
-24
-29
-30
-24
-23
-23
-27
-24
-27
-25
-25
-27
-29
-27
-25
-28
-29
-28
-25
-20
-25
-24
-21
-19
-18
-27
-45
-64
-83
-98
-107
-110
-100
-80
-57
-37
-18
0
9
21
19
15
11
12
8
2
-4
-5
-4
-5
-7
-8
-6
-6
-7
-7
-10
-11
-6
-9
-10
-15
-12
-10
-11
-10
-12
-17
-14
-13
-11
-15
-12
-13
-12
-13
-15
-14
-12
-10
-13
-12
-14
-12
-13
-17
-16
-18
-18
-16
-20
-20
-23
-20
-23
-28
-29
-31
-33
-33
-36
-38
-39
-39
-38
-31
-34
-34
-29
-27
-29
-27
-24
-16
-15
-14
-15
-13
-7
0
1
0
2
8
11
11
8
7
11
12
8
6
7
8
10
8
3
6
9
6
3
4
3
6
6
7
4
6
9
10
8
8
7
8
11
9
8
9
12
14
12
8
8
7
10
9
9
8
11
10
9
6
4
7
8
7
3
3
8
6
8
4
5
6
5
7
6
6
9
9
6
4
3
5
5
3
1
0
0
1
-3
-7
0
1
-1
-2
-3
0
-2
2
3
-1
-3
5
3
4
4
3
3
3
2
2
4
4
4
4
-4
-2
0
-2
-4
-6
-3
2
1
-2
-7
0
2
3
3
-1
0
1
4
2
-1
-1
1
3
0
-3
0
3
1
3
0
-3
2
4
2
1
0
4
-1
1
1
-5
-3
-1
0
-6
-9
-6
-7
-9
-12
-13
-7
-7
-7
-7
-10
-6
0
-4
-4
-5
0
-2
0
-7
-4
0
2
-4
-5
-2
2
1
0
3
7
10
5
-4
-22
-42
-65
-81
-86
-85
-76
-55
-31
-8
12
24
35
37
36
30
25
22
21
15
10
13
15
14
12
9
11
13
14
14
7
8
12
15
11
9
10
11
12
11
10
8
9
9
6
5
3
1
7
3
3
1
5
3
2
-3
0
-1
3
2
-2
0
0
4
1
-5
-6
-9
-10
-12
-14
-17
-15
-17
-21
-26
-26
-21
-21
-21
-24
-21
-20
-17
-16
-14
-11
-9
-3
-3
0
3
5
8
12
9
8
11
16
15
15
12
14
15
15
10
11
14
11
14
12
11
16
18
15
12
9
16
16
13
13
17
19
17
19
17
16
21
19
17
16
15
20
20
17
11
17
16
14
12
7
10
8
10
11
5
5
7
6
4
2
0
4
3
1
0
-4
3
1
0
-3
-3
-1
0
-3
-4
-5
-4
-1
-5
-5
-3
-2
2
-2
-5
-7
-5
-3
-5
-7
-7
-4
-8
-9
-11
-11
-13
-8
-9
-11
-9
-11
-9
-8
-11
-11
-8
-9
-9
-12
-10
-13
-9
-8
-9
-9
-8
-5
-4
-7
-9
-4
-4
-8
-9
-12
-10
-8
-8
-10
-13
-13
-10
-8
-13
-16
-16
-13
-18
-20
-16
-16
-15
-20
-20
-18
-19
-16
-19
-19
-18
-19
-19
-19
-19
-20
-19
-18
-21
-20
-22
-19
-20
-18
-22
-22
-18
-22
-24
-25
-24
-21
-22
-23
-24
-27
-25
-21
-17
-18
-16
-17
-18
-21
-21
-21
-19
-19
-21
-21
-21
-17
-18
-18
-20
-21
-22
-22
-21
-22
-19
-18
-15
-22
-34
-55
-73
-88
-98
-102
-97
-79
-58
-36
-19
-1
10
18
16
12
8
4
4
-1
0
-4
-1
-2
-5
-9
-6
-5
-5
-5
-8
-7
-4
-6
-5
-8
-8
-7
-8
-7
-9
-10
-8
-9
-8
-8
-11
-8
-9
-11
-14
-14
-13
-9
-13
-19
-15
-18
-19
-21
-21
-21
-25
-22
-24
-25
-28
-28
-28
-30
-31
-33
-36
-35
-36
-40
-42
-39
-38
-42
-40
-40
-36
-35
-32
-34
-34
-25
-21
-19
-17
-10
-7
-2
2
0
4
7
8
7
7
5
9
9
13
8
8
11
16
11
14
12
12
13
13
8
10
9
10
10
9
5
6
8
8
3
0
2
5
4
-5
2
-5
2
1
0
1
4
7
6
3
3
7
7
7
6
2
7
10
10
6
3
4
8
0
-2
-3
4
4
0
2
-4
-3
2
4
-1
2
2
5
2
-6
-5
-4
-3
-6
-5
-8
-3
-3
-5
-5
-8
-9
-9
-6
-9
-8
-4
-7
-4
-6
-6
-6
-1
-4
-6
-9
-4
-5
-6
-2
-9
-5
-5
-7
-10
-8
-10
-9
-9
-13
-9
-8
-9
-8
-10
-11
-9
-8
-11
-12
-15
-11
-9
-8
-11
-10
-8
-9
-9
-8
-13
-8
-8
-7
-10
-12
-10
-8
-6
-10
-9
-8
-9
-7
-10
-13
-12
-9
-10
-13
-11
-11
-9
-10
-13
-15
-13
-8
-13
-14
-14
-15
-12
-15
-17
-21
-18
-21
-22
-27
-26
-27
-25
-27
-27
-28
-23
-22
-22
-22
-20
-22
-19
-22
-22
-22
-22
-16
-19
-20
-23
-16
-17
-16
-20
-21
-18
-16
-19
-15
-12
-10
-11
-21
-38
-60
-77
-94
-104
-102
-96
-78
-50
-29
-13
2
16
20
16
16
8
8
4
-1
-3
-9
-7
-5
-5
-13
-14
-13
-8
-10
-12
-13
-11
-13
-11
-11
-15
-14
-12
-14
-16
-18
-15
-13
-14
-17
-20
-17
-14
-14
-16
-19
-16
-15
-15
-16
-19
-16
-15
-19
-19
-26
-25
-24
-25
-30
-31
-31
-27
-34
-36
-35
-38
-36
-36
-40
-39
-40
-38
-39
-41
-41
-39
-32
-30
-33
-30
-26
-25
-19
-18
-16
-11
-5
3
3
3
8
11
15
12
12
15
18
19
16
15
15
11
11
11
14
16
16
16
15
13
17
16
13
9
6
11
14
18
15
20
22
25
20
20
17
18
20
19
11
13
14
15
13
14
12
9
11
12
11
7
8
11
7
1
-1
1
-1
-2
-5
-7
-4
-2
-2
-5
-6
-3
0
-3
-6
-5
-4
-6
-4
-6
-8
-8
-5
-5
-9
-11
-9
-7
-8
-9
-7
-8
-5
-5
-8
-6
-6
-4
-6
-7
-13
-11
-7
-9
-13
-15
-11
-13
-13
-17
-18
-19
-11
-12
-17
-14
-14
-14
-10
-13
-13
-8
-8
-4
-10
-8
-9
-6
-9
-8
-6
-6
-1
-3
-6
-7
-5
-4
-5
-7
-6
-6
-4
-5
-10
-11
-10
-9
-8
-9
-10
-5
-7
-6
-7
-9
-7
-5
-4
-7
-7
-2
-3
-4
-6
-6
-4
-1
1
-5
1
-1
3
3
6
4
8
10
10
9
9
8
11
9
8
10
11
12
15
13
14
17
22
23
21
21
21
20
5
-17
-37
-56
-69
-72
-73
-59
-36
-13
11
30
40
42
46
43
40
33
31
30
26
25
24
24
23
23
21
16
17
17
13
11
7
9
12
10
9
10
11
14
13
12
13
9
12
11
9
11
11
11
9
7
4
3
4
4
-1
-5
-5
0
-3
-8
-10
-7
-9
-10
-10
-11
-10
-11
-8
-13
-14
-16
-14
-15
-18
-20
-18
-19
-21
-20
-21
-19
-17
-11
-15
-12
-7
0
1
1
-1
5
9
14
14
14
15
18
23
18
17
21
25
23
24
19
23
22
22
16
16
18
20
16
16
16
12
16
18
12
11
13
16
13
9
12
12
16
15
14
12
14
13
11
11
8
9
9
12
5
7
7
11
5
6
6
5
9
10
7
8
9
10
8
7
4
4
8
5
6
5
5
8
5
4
3
3
5
4
5
4
4
6
3
6
3
8
7
6
3
2
2
2
0
-5
-2
0
3
-3
-3
-3
-3
-2
-5
-10
-9
-9
-11
-8
-14
-13
-10
-9
-11
-12
-15
-13
-12
-16
-21
-19
-18
-16
-17
-20
-19
-22
-17
-18
-21
-19
-21
-16
-18
-23
-24
-21
-19
-19
-23
-23
-21
-17
-16
-17
-21
-16
-17
-17
-23
-27
-24
-22
-22
-23
-22
-19
-14
-14
-16
-18
-18
-16
-18
-20
-22
-20
-17
-20
-23
-24
-23
-19
-19
-20
-19
-18
-15
-14
-20
-19
-16
-14
-14
-17
-20
-19
-16
-16
-20
-19
-22
-17
-18
-20
-16
-16
-10
-7
-7
-11
-24
-38
-58
-78
-96
-100
-95
-82
-66
-46
-22
-4
11
14
16
13
14
8
3
0
-3
-5
-6
-10
-9
-9
-5
-6
-9
-9
-8
-7
-7
-6
-11
-11
-8
-11
-14
-18
-15
-16
-18
-19
-20
-21
-16
-19
-24
-27
-23
-26
-29
-31
-29
-28
-26
-26
-30
-29
-30
-31
-29
-29
-30
-29
-30
-28
-30
-34
-33
-32
-34
-37
-37
-34
-35
-31
-39
-38
-37
-33
-34
-33
-31
-28
-23
-19
-17
-17
-13
-3
-4
-6
-7
-1
6
6
5
4
8
10
10
6
4
6
9
6
5
6
5
9
11
8
5
8
10
10
9
8
11
10
9
11
7
11
11
9
9
6
7
10
5
6
5
6
5
6
3
0
3
5
6
-1
2
4
4
3
5
1
3
10
9
5
3
4
6
6
2
4
8
8
4
5
1
4
8
4
6
2
2
7
5
1
-1
-3
-1
2
0
-5
-3
-4
-6
-5
-8
-7
-4
-4
-6
-10
-5
-6
-6
-9
-9
-9
-5
-7
-7
-9
-9
-8
-7
-13
-10
-12
-8
-7
-11
-13
-10
-5
-9
-11
-14
-16
-12
-16
-19
-21
-20
-19
-22
-26
-26
-26
-25
-29
-29
-33
-28
-26
-27
-30
-33
-33
-30
-29
-33
-36
-36
-34
-35
-39
-39
-38
-34
-34
-34
-35
-30
-30
-28
-33
-28
-31
-26
-30
-31
-34
-33
-30
-32
-33
-36
-34
-28
-31
-32
-32
-31
-27
-27
-27
-29
-24
-25
-24
-27
-27
-26
-26
-25
-26
-28
-28
-22
-24
-20
-16
-13
-17
-27
-49
-70
-93
-103
-111
-108
-98
-78
-50
-26
-12
2
12
15
15
16
12
8
7
3
6
4
4
1
-1
-5
-4
-6
-4
-5
-4
-6
-9
-3
-6
-9
-10
-8
-9
-6
-10
-13
-9
-4
-3
-5
-2
-2
-1
2
-1
-4
-5
2
1
-2
-6
-5
-2
-4
-9
-10
-8
-8
-11
-15
-17
-18
-18
-21
-22
-24
-23
-21
-22
-24
-27
-26
-26
-26
-29
-27
-25
-23
-21
-18
-14
-9
-7
-1
-2
2
6
11
14
11
14
14
17
15
18
14
17
21
21
21
19
23
21
21
19
15
14
18
17
13
12
12
16
13
13
12
11
12
14
11
7
10
9
7
10
7
8
12
7
9
8
12
9
12
11
7
9
7
11
6
3
3
3
5
-1
1
4
4
6
3
3
3
5
7
5
-3
3
3
2
1
-4
-2
-3
-2
-3
-4
-5
-2
1
-3
-4
-5
-4
-7
-3
-5
-6
-6
-5
-7
-11
-6
-6
-6
-7
-9
-5
-2
-5
-7
-8
-9
-9
-5
-7
-12
-9
-11
-9
-13
-14
-12
-10
-10
-12
-13
-11
-8
-8
-9
-9
-11
-6
-6
-9
-11
-10
-7
-7
-9
-12
-11
-5
-5
-7
-7
-10
-5
-3
-7
-8
-6
-5
-5
-5
-8
-6
0
1
-5
-5
-3
-1
3
-4
-5
-5
0
-1
-3
-4
2
4
5
10
8
11
13
14
11
12
11
13
14
12
12
12
14
13
11
9
14
15
18
19
24
21
14
-1
-23
-44
-63
-71
-72
-63
-46
-22
4
24
36
45
47
48
46
37
36
33
31
31
32
30
30
29
29
26
25
26
28
24
23
20
21
22
20
19
15
16
18
14
15
13
16
16
14
11
14
14
14
13
8
5
5
8
8
6
1
-1
-1
-2
-9
-15
-17
-19
-20
-24
-26
-26
-25
-24
-28
-30
-31
-30
-30
-34
-32
-33
-33
-31
-32
-29
-25
-18
-16
-15
-15
-9
-3
0
2
5
9
12
15
14
15
18
22
22
25
20
20
20
23
21
22
24
24
27
24
21
22
23
23
19
17
14
16
18
18
14
14
17
15
12
12
12
13
12
11
11
11
12
10
9
10
10
9
10
10
6
9
10
8
3
1
3
3
4
1
-5
4
3
1
2
-2
1
5
0
-2
-4
-7
-9
-4
-6
-9
-6
-3
-4
-5
-7
-6
-2
0
1
-2
-1
4
-3
-2
0
0
-3
2
0
-6
-7
-4
-4
-7
-10
-10
-6
-7
-8
-10
-8
-8
-10
-11
-11
-11
-5
-10
-8
-11
-13
-11
-10
-12
-15
-14
-13
-12
-12
-12
-12
-8
-8
-9
-13
-10
-9
-13
-12
-13
-17
-12
-9
-13
-14
-14
-12
-11
-14
-15
-17
-15
-15
-12
-12
-11
-10
-9
-14
-15
-14
-12
-13
-13
-18
-16
-14
-18
-20
-24
-24
-20
-19
-25
-30
-25
-25
-24
-28
-30
-27
-22
-20
-23
-23
-24
-22
-22
-23
-23
-23
-20
-20
-21
-24
-20
-18
-16
-19
-20
-20
-18
-21
-19
-20
-16
-12
-13
-22
-40
-59
-78
-93
-101
-102
-94
-75
-53
-30
-12
2
11
14
12
16
9
10
5
2
-1
-2
-3
-2
-6
-8
-9
-6
-6
-7
-4
-6
-8
-8
-13
-10
-10
-10
-10
-10
-11
-10
-6
-7
-9
-11
-11
-7
-9
-13
-15
-14
-19
-17
-18
-22
-20
-22
-20
-24
-28
-29
-29
-29
-30
-35
-35
-32
-33
-35
-39
-38
-38
-36
-39
-43
-38
-37
-40
-39
-38
-41
-32
-32
-33
-33
-29
-25
-23
-17
-19
-12
-7
-4
0
0
1
3
8
7
3
6
7
6
8
5
5
8
9
6
5
5
3
9
2
-1
4
6
3
0
-6
-6
-2
-5
-6
-6
-5
-4
-4
-2
-6
-4
2
2
0
-3
-4
-4
-2
-6
-9
-5
0
-3
-3
-4
-4
-5
-2
-7
-6
-5
-5
0
-5
-5
-4
-4
0
-6
-8
-10
-8
-6
-4
-9
-8
-4
-2
-5
-8
-9
-7
-9
-9
-13
-8
-6
-7
-9
-12
-11
-10
-10
-10
-11
-11
-6
-8
-9
-15
-14
-9
-10
-7
-13
-11
-9
-11
-13
-15
-17
-14
-14
-18
-22
-21
-23
-19
-22
-24
-24
-23
-19
-20
-20
-21
-20
-17
-21
-24
-24
-21
-22
-25
-25
-25
-26
-23
-26
-24
-23
-25
-20
-23
-22
-20
-18
-16
-18
-23
-18
-19
-17
-21
-21
-23
-18
-19
-18
-18
-19
-16
-18
-19
-23
-23
-23
-23
-24
-31
-30
-31
-26
-29
-31
-28
-30
-27
-28
-29
-29
-26
-25
-23
-24
-25
-24
-26
-26
-24
-24
-23
-27
-25
-29
-30
-23
-19
-22
-25
-24
-20
-17
-18
-17
-14
-14
-25
-41
-63
-84
-98
-104
-108
-100
-82
-59
-31
-12
-1
12
17
17
14
9
2
3
1
-2
-5
-3
1
5
0
-3
0
-1
2
1
0
-2
0
4
0
-3
-3
3
3
-2
-1
-3
2
-2
1
-5
-3
-2
3
-2
-3
-4
0
-2
-2
-6
-4
-5
0
-2
-6
-6
-7
-5
-10
-13
-16
-15
-16
-24
-27
-27
-24
-25
-29
-27
-29
-26
-28
-25
-30
-26
-25
-16
-15
-13
-10
-6
0
-1
3
5
7
8
10
11
13
18
20
21
17
18
21
23
23
19
18
21
17
18
15
16
18
21
19
16
21
21
20
21
14
18
18
18
18
16
16
20
19
17
13
15
16
20
13
15
18
17
22
17
15
16
16
16
15
11
14
14
11
13
11
12
16
16
16
11
9
13
15
11
7
6
9
8
7
2
3
9
7
10
9
8
9
11
10
10
10
11
11
8
10
7
15
13
11
6
8
8
7
7
4
1
1
1
1
-4
2
4
3
4
-1
-1
4
4
3
1
1
6
8
2
2
4
5
9
5
4
5
8
8
5
3
6
12
10
9
8
10
10
11
9
7
11
12
13
12
9
10
11
14
10
9
7
10
14
12
6
6
4
5
1
-1
2
0
2
3
-2
1
7
7
9
4
5
9
11
7
4
6
8
8
7
7
6
10
8
5
3
5
11
16
12
5
-7
-25
-39
-62
-79
-82
-76
-65
-43
-23
2
19
31
36
35
35
32
26
19
17
16
16
17
16
12
9
13
11
9
9
9
7
11
6
2
2
5
-1
1
2
0
3
3
1
1
1
3
3
-1
0
-4
-3
-2
-7
-9
-6
-7
-5
-9
-12
-11
-6
-6
-9
-15
-16
-13
-13
-17
-18
-21
-17
-20
-23
-26
-24
-29
-25
-29
-32
-29
-28
-24
-24
-29
-25
-21
-17
-17
-18
-17
-12
-5
-3
-2
-2
6
7
7
2
5
7
10
9
8
8
10
11
7
9
9
9
8
10
6
6
7
4
3
2
4
4
3
1
-2
-2
2
2
1
1
-7
0
1
-1
-6
-4
-1
2
-2
2
-3
1
3
-3
1
-1
3
4
5
2
2
4
4
4
4
-1
3
2
-1
-7
-5
-4
-3
-6
-8
-5
-5
0
-5
-6
-7
-4
-6
-5
-7
-8
-6
-7
-6
-8
-6
-8
-6
-9
-11
-11
-10
-7
-13
-17
-17
-15
-13
-12
-15
-13
-13
-13
-10
-14
-14
-10
-7
-9
-11
-8
-11
-6
-10
-13
-12
-11
-6
-9
-15
-13
-12
-9
-13
-13
-12
-9
-10
-14
-12
-13
-13
-10
-13
-14
-17
-12
-11
-13
-13
-14
-10
-11
-13
-14
-14
-13
-11
-14
-13
-15
-13
-13
-15
-18
-20
-19
-18
-20
-20
-22
-21
-20
-24
-24
-24
-20
-20
-20
-21
-21
-19
-16
-17
-16
-18
-16
-14
-19
-17
-15
-21
-16
-19
-25
-22
-20
-19
-18
-18
-14
-9
-13
-22
-36
-55
-74
-87
-101
-103
-88
-67
-46
-22
-7
7
16
20
15
13
8
7
3
0
-5
-5
-5
-1
-4
-9
-7
-8
-6
-7
-8
-8
-7
-9
-5
-9
-10
-6
-6
-6
-9
-6
-7
-6
-9
-9
-10
-13
-13
-17
-18
-22
-19
-18
-23
-23
-22
-23
-23
-27
-29
-30
-28
-28
-28
-31
-28
-29
-31
-35
-35
-35
-35
-37
-36
-37
-36
-36
-33
-30
-32
-32
-30
-26
-25
-26
-26
-20
-15
-10
-13
-8
-9
-3
-1
0
1
6
10
11
12
12
16
19
17
13
15
14
18
20
13
14
13
14
11
8
8
10
7
5
6
4
7
7
5
5
8
9
12
10
2
4
2
2
1
-6
-5
-4
-5
-7
-10
-9
-7
-4
-6
-7
-7
-6
0
0
-6
-9
-5
-5
-7
-10
-11
-10
-8
-9
-10
-11
-11
-7
-7
-9
-10
-8
-5
-11
-13
-15
-11
-13
-13
-15
-15
-12
-10
-13
-19
-18
-15
-13
-17
-18
-21
-25
-19
-21
-20
-21
-21
-20
-18
-22
-22
-20
-21
-22
-21
-23
-20
-14
-21
-25
-25
-22
-21
-21
-24
-25
-21
-20
-17
-21
-20
-20
-17
-17
-21
-19
-19
-14
-15
-19
-16
-12
-14
-15
-16
-12
-12
-13
-12
-17
-15
-12
-9
-12
-13
-13
-10
-11
-9
-16
-18
-17
-15
-17
-17
-17
-15
-15
-17
-18
-22
-21
-20
-21
-23
-21
-19
-17
-17
-16
-19
-14
-12
-14
-16
-13
-10
-8
-13
-12
-11
-8
-8
-10
-10
-12
-10
-3
-2
-6
-6
-16
-31
-52
-75
-92
-96
-93
-84
-66
-42
-15
10
22
25
32
29
27
22
20
18
12
13
10
6
3
4
2
-1
-3
-2
0
-1
-3
-4
-7
-5
-3
-5
-10
-11
-8
-7
-7
-9
-9
-8
-4
-2
-3
-5
0
-2
-3
-5
-9
-8
-6
-9
-10
-10
-9
-7
-12
-11
-14
-13
-11
-11
-16
-15
-18
-19
-20
-23
-24
-22
-20
-23
-22
-22
-18
-19
-19
-23
-21
-16
-17
-13
-15
-10
-4
-2
1
3
5
11
15
15
16
14
15
20
20
14
17
19
20
21
20
19
19
19
17
13
15
16
18
17
18
16
19
22
19
18
16
21
18
15
14
14
15
19
16
12
12
12
13
10
8
7
9
10
9
8
8
10
11
7
4
3
6
7
5
2
4
4
0
-2
-4
-6
-3
1
-3
-4
-5
-3
2
-2
-3
-3
-2
-2
1
-5
-7
-3
-3
0
-4
-5
-3
2
-2
-4
-3
1
1
1
0
-7
-3
2
3
2
-2
-1
2
3
1
-3
1
4
2
-2
-4
2
1
2
-2
3
2
1
1
-5
-4
0
1
3
-2
-1
-1
4
-1
-2
1
0
-1
3
0
0
-3
4
0
0
-4
0
1
-5
-6
-6
-4
-5
-3
0
-5
0
4
0
-5
-6
-5
-2
-2
-3
1
4
8
6
3
3
7
8
6
1
5
4
4
3
5
1
2
8
5
3
4
7
12
12
11
8
-1
-19
-39
-59
-77
-81
-79
-69
-51
-26
-7
18
30
34
34
37
31
30
19
17
16
16
13
14
12
16
16
16
12
13
17
16
16
8
11
9
16
10
9
8
8
7
8
4
3
3
8
3
1
0
1
3
-1
-3
-3
-4
-3
-3
-4
-9
-9
-6
-12
-12
-16
-13
-14
-13
-20
-22
-19
-16
-20
-24
-27
-22
-25
-26
-32
-28
-29
-23
-21
-24
-25
-20
-19
-18
-14
-15
-7
-1
0
5
4
8
12
16
14
13
18
20
19
19
17
20
20
15
18
14
15
17
12
11
12
12
9
8
4
5
5
3
2
-5
-6
-5
2
-3
-5
-3
-5
-2
-4
-5
0
-2
2
3
-1
-4
-2
2
1
-2
-3
-2
-2
-1
-4
-7
-5
1
-3
-5
-7
-4
2
-3
-3
-5
-2
1
-5
-9
-11
-9
-6
-4
-6
-4
1
-2
-4
-6
-8
-7
-4
-7
-6
-6
-5
-5
-9
-11
-10
-6
-3
-6
-10
-12
-10
-8
-10
-12
-10
-8
-5
-5
-9
-2
-4
-1
-6
-9
-11
-11
-8
-11
-13
-11
-11
-13
-11
-14
-12
-12
-11
-13
-13
-14
-12
-9
-10
-12
-16
-11
-11
-10
-13
-14
-17
-14
-17
-18
-19
-20
-18
-21
-21
-21
-19
-15
-19
-21
-20
-21
-18
-17
-20
-18
-21
-20
-25
-25
-29
-25
-27
-28
-28
-27
-26
-21
-22
-22
-20
-17
-16
-16
-19
-21
-19
-20
-19
-25
-23
-23
-16
-21
-21
-22
-20
-21
-21
-21
-18
-16
-13
-16
-29
-44
-64
-80
-99
-104
-105
-93
-70
-47
-28
-9
4
16
17
13
9
7
3
-2
-3
-4
-6
-5
-4
-9
-8
-7
-5
-4
-11
-11
-8
-8
-8
-7
-10
-9
-9
-7
-12
-12
-11
-13
-11
-14
-17
-17
-13
-15
-16
-20
-20
-21
-26
-27
-28
-29
-24
-24
-29
-30
-33
-29
-30
-32
-37
-37
-37
-41
-41
-45
-46
-44
-42
-50
-48
-48
-45
-43
-46
-48
-42
-40
-38
-39
-36
-30
-27
-24
-22
-20
-17
-14
-10
-9
-11
-4
2
1
4
1
9
11
10
10
9
10
12
11
10
11
10
14
10
3
3
5
5
5
4
3
6
9
9
6
2
3
8
4
2
1
1
2
4
1
1
3
2
3
2
3
4
6
4
4
4
3
2
1
-6
-4
-2
-5
-9
-12
-17
-13
-12
-14
-17
-15
-14
-10
-13
-15
-15
-14
-11
-15
-16
-19
-18
-15
-14
-14
-16
-16
-15
-17
-18
-21
-17
-12
-18
-19
-21
-22
-21
-17
-23
-27
-23
-21
-20
-24
-24
-24
-23
-23
-26
-28
-27
-26
-22
-27
-28
-24
-20
-24
-26
-25
-22
-25
-22
-25
-24
-23
-21
-21
-24
-25
-22
-22
-23
-23
-24
-20
-18
-16
-19
-23
-22
-16
-16
-18
-21
-16
-16
-16
-18
-19
-16
-15
-15
-14
-12
-13
-13
-15
-16
-17
-17
-17
-14
-17
-13
-13
-9
-6
-12
-12
-13
-9
-10
-18
-15
-14
-10
-11
-9
-10
-7
-6
-4
-7
-6
-3
-1
-1
-2
-3
1
2
3
3
2
4
4
3
2
0
4
9
13
6
4
-10
-26
-50
-73
-83
-86
-80
-67
-45
-22
2
21
31
35
36
35
32
32
22
21
18
13
14
11
8
6
10
8
7
6
5
6
4
3
5
7
7
10
3
5
6
7
6
9
5
5
5
4
3
1
2
4
3
2
1
5
3
6
5
5
4
3
4
2
4
1
6
3
0
-3
-4
-6
-4
-11
-8
-8
-10
-8
-11
-11
-10
-9
-5
-6
-6
-2
4
4
8
9
11
16
15
16
16
20
23
25
23
22
24
29
28
26
27
27
30
28
22
19
21
28
27
21
20
24
21
18
15
18
14
18
17
15
13
15
17
17
14
16
13
18
14
11
11
13
19
18
16
12
13
14
12
12
9
11
16
12
10
10
6
7
5
6
6
8
6
8
3
2
3
8
9
3
3
6
8
8
7
8
10
10
10
9
7
7
11
7
4
3
6
6
6
3
1
4
4
2
4
-3
1
2
0
-1
-5
-3
-2
-3
-6
-5
2
2
2
2
3
6
7
8
3
1
3
6
2
1
1
3
3
3
-4
-2
-1
2
2
-1
-3
0
-2
-3
0
0
1
4
3
1
0
1
5
2
0
-2
4
4
6
2
-1
3
1
0
-5
-4
-5
-2
-3
-7
-5
-4
2
5
3
4
4
5
8
2
2
4
5
3
0
4
4
6
7
4
4
3
6
6
10
10
11
2
-11
-34
-57
-72
-81
-80
-79
-64
-42
-18
2
18
26
29
34
29
19
17
16
13
11
7
1
3
4
4
-2
-5
-5
-4
-2
-8
-9
-4
1
0
-8
-7
-4
0
-5
-10
-9
-8
-8
-7
-8
-11
-10
-8
-12
-14
-16
-14
-16
-15
-19
-18
-15
-15
-17
-18
-21
-20
-22
-23
-25
-27
-27
-27
-30
-36
-38
-36
-36
-42
-43
-42
-43
-38
-41
-43
-40
-38
-34
-31
-29
-25
-21
-15
-10
-13
-11
-7
4
6
3
6
12
11
13
14
10
11
16
17
14
13
11
16
14
10
8
9
9
9
8
8
10
11
9
5
3
7
8
5
5
0
4
5
5
3
-4
4
0
1
-2
-5
-3
-1
2
-5
-3
2
-1
-2
-7
-11
-13
-12
-8
-11
-15
-10
-8
-11
-14
-15
-12
-12
-12
-13
-15
-12
-11
-10
-12
-14
-10
-12
-12
-13
-17
-14
-13
-15
-14
-19
-19
-14
-14
-19
-16
-18
-15
-18
-21
-23
-20
-17
-16
-16
-20
-18
-16
-18
-18
-21
-21
-16
-15
-16
-21
-18
-12
-14
-18
-15
-14
-10
-13
-15
-16
-14
-15
-17
-18
-17
-15
-12
-14
-21
-18
-18
-13
-12
-14
-16
-15
-14
-15
-17
-16
-12
-12
-10
-14
-15
-13
-10
-10
-14
-15
-16
-15
-15
-21
-23
-19
-21
-20
-20
-19
-21
-16
-17
-19
-21
-19
-16
-14
-15
-13
-12
-11
-12
-12
-12
-11
-11
-12
-14
-17
-13
-8
-14
-17
-18
-15
-13
-15
-12
-13
-11
-15
-21
-41
-61
-79
-89
-101
-100
-91
-69
-46
-20
-5
10
16
23
21
17
12
10
9
3
1
-4
0
-4
-7
-8
-12
-8
-12
-11
-15
-13
-9
-11
-10
-14
-15
-17
-13
-15
-16
-18
-16
-14
-15
-17
-18
-20
-16
-18
-20
-21
-20
-18
-19
-20
-24
-24
-23
-26
-30
-29
-31
-28
-31
-32
-36
-36
-33
-38
-41
-43
-41
-40
-39
-40
-42
-42
-41
-43
-47
-46
-44
-40
-40
-36
-37
-32
-25
-23
-20
-19
-11
-6
-3
-3
-3
0
1
5
2
0
8
8
10
8
9
7
10
8
6
6
8
9
9
9
5
11
9
10
7
6
7
8
7
8
2
0
1
-2
-7
-2
0
5
3
0
-3
-1
4
3
0
0
1
2
3
2
-5
-2
0
0
-4
-4
0
1
2
1
0
-1
-2
-4
-5
-9
-6
-5
-7
-8
-10
-11
-9
-7
-11
-8
-6
-5
-8
-12
-12
-10
-7
-6
-8
-12
-8
-8
-7
-11
-10
-4
-9
-6
-8
-9
-8
-6
-7
-7
-10
-11
-8
-9
-9
-8
-11
-13
-10
-13
-12
-12
-11
-9
-14
-14
-13
-11
-11
-13
-12
-9
-7
-5
-7
-15
-11
-8
-9
-13
-13
-12
-11
-12
-15
-16
-12
-12
-10
-13
-15
-17
-11
-13
-11
-14
-12
-11
-14
-16
-16
-14
-14
-12
-13
-12
-11
-7
-6
-9
-10
-6
-7
-4
-7
-11
-7
-6
-5
-8
-9
-10
-5
-7
-5
-1
2
2
-6
-22
-41
-60
-78
-90
-92
-85
-66
-41
-16
3
22
31
38
34
30
24
22
18
15
15
12
11
14
13
10
7
6
12
11
10
8
6
7
10
7
3
9
10
10
5
6
9
8
8
3
2
-2
-1
4
-4
0
0
6
3
3
2
1
4
5
0
-2
0
0
-4
-8
-10
-12
-12
-14
-14
-18
-18
-13
-13
-18
-19
-16
-19
-15
-18
-21
-18
-10
-8
-7
-11
-6
4
6
11
11
14
19
21
22
24
25
30
29
32
28
31
36
32
31
29
30
28
33
32
31
32
33
31
31
27
30
30
29
28
24
26
28
28
26
25
23
25
28
23
22
22
26
23
20
20
19
22
23
19
18
18
20
16
15
13
16
16
17
14
12
14
10
15
12
11
11
11
12
13
9
12
14
12
11
7
7
10
8
7
3
7
10
8
3
5
8
6
7
7
2
5
6
7
3
-2
3
3
4
3
2
2
3
3
1
0
3
1
2
0
-3
-3
2
0
-5
-7
-7
-3
-5
-9
-10
-6
-8
-8
-8
-15
-11
-6
-8
-12
-16
-12
-16
-17
-16
-17
-20
-16
-13
-17
-17
-17
-13
-13
-13
-20
-18
-21
-17
-18
-20
-22
-17
-16
-18
-21
-19
-19
-17
-25
-27
-25
-22
-19
-24
-25
-25
-21
-19
-21
-27
-21
-23
-23
-25
-25
-25
-22
-22
-20
-23
-23
-20
-18
-23
-23
-19
-14
-14
-15
-18
-27
-42
-62
-83
-96
-101
-97
-83
-67
-44
-18
1
9
15
15
13
15
12
5
0
0
-1
-4
-7
-9
-8
-7
-10
-6
-10
-11
-8
-8
-10
-13
-12
-13
-11
-13
-11
-10
-10
-6
-12
-11
-13
-13
-13
-17
-15
-17
-10
-11
-13
-15
-15
-16
-14
-17
-20
-21
-21
-18
-22
-22
-21
-23
-24
-28
-31
-37
-32
-33
-35
-37
-34
-32
-34
-39
-39
-38
-33
-34
-37
-37
-34
-27
-23
-19
-23
-14
-11
-5
-7
-2
-1
3
7
5
4
5
7
12
7
8
10
12
16
16
10
11
14
13
14
9
13
12
15
8
11
7
11
9
7
3
6
6
9
3
3
4
4
6
2
0
0
5
4
0
-2
1
4
2
-4
-6
-3
1
0
0
-7
-6
-5
-6
-5
-6
-7
-4
-4
-6
-7
-5
-5
-5
-7
-11
-9
-8
-7
-11
-11
-10
-8
-6
-6
-9
-10
-9
-9
-11
-10
-11
-10
-10
-15
-18
-14
-13
-10
-13
-13
-13
-11
-11
-12
-14
-13
-12
-9
-11
-14
-12
-8
-8
-10
-15
-11
-10
-7
-11
-10
-9
-5
-8
-9
-12
-8
-5
-9
-11
-8
-10
-7
-9
-10
-14
-10
-12
-8
-8
-11
-11
-12
-10
-13
-15
-13
-12
-11
-12
-13
-12
-12
-9
-11
-11
-6
-6
-3
-6
-10
-8
-7
-8
-10
-12
-11
-13
-12
-14
-16
-19
-15
-15
-17
-15
-14
-8
-11
-8
-14
-15
-10
-13
-15
-15
-15
-11
-10
-14
-15
-12
-9
-7
-11
-8
-7
-2
-3
-10
-24
-40
-61
-79
-94
-101
-100
-82
-60
-40
-21
2
14
20
22
18
11
9
8
0
-6
-7
-8
-9
-8
-12
-11
-8
-9
-9
-12
-10
-8
-7
-10
-11
-13
-12
-12
-14
-17
-15
-13
-12
-14
-15
-15
-14
-14
-15
-17
-19
-19
-19
-19
-22
-23
-17
-19
-21
-23
-22
-19
-19
-21
-25
-27
-27
-27
-29
-34
-37
-31
-33
-36
-40
-44
-38
-40
-41
-40
-41
-39
-34
-33
-33
-29
-24
-20
-19
-18
-14
-10
-3
-6
-2
-3
2
12
8
9
9
11
13
11
12
13
14
15
16
10
10
11
11
8
7
3
6
7
5
6
3
8
8
6
6
1
8
8
5
6
5
5
8
5
3
3
6
1
2
-4
-4
-2
1
-4
-5
-4
-4
-2
-4
-6
-6
-8
-3
-7
-8
-8
-5
-1
-4
-3
-5
-3
-3
-5
-8
-9
-5
-3
-7
-5
-7
1
0
-5
-6
-3
-1
0
-1
-4
-3
-1
2
-2
-4
-6
-6
2
-3
-5
-4
-3
-2
-4
-8
-4
-5
-4
-6
-8
-7
-6
-4
-9
-10
-10
-8
-10
-11
-11
-11
-9
-7
-9
-12
-9
-8
-8
-8
-13
-14
-10
-7
-8
-11
-10
-8
-5
-9
-10
-9
-7
-7
-8
-8
-9
-9
-7
-9
-13
-11
-7
-5
-4
-9
-8
-6
-5
-5
-6
-7
-2
0
-3
-4
-4
0
5
5
5
9
14
15
13
10
11
16
18
12
15
13
15
15
13
14
12
16
22
19
9
3
-12
-33
-55
-75
-80
-76
-67
-50
-26
-6
16
29
36
36
36
38
34
25
19
21
23
23
19
17
15
16
17
14
12
10
12
14
12
8
8
12
11
7
10
10
10
10
7
3
4
7
8
5
6
3
7
8
10
7
5
6
4
3
4
3
6
4
0
-3
-6
-6
-8
-10
-14
-13
-14
-13
-15
-16
-19
-20
-20
-21
-23
-27
-20
-18
-18
-16
-12
-10
-6
-5
-4
3
9
13
11
12
15
19
21
21
19
18
21
20
20
20
19
20
26
24
19
21
22
21
19
19
19
23
20
17
16
15
20
18
15
12
12
13
12
10
9
12
10
12
10
5
8
9
8
6
3
8
3
7
2
-1
3
2
4
4
2
3
2
4
4
-3
4
2
-1
-1
-7
-3
1
-5
-6
-6
0
1
2
-1
-3
-3
2
-2
-5
-5
-8
-4
-5
-4
-7
-6
-6
-4
-10
-12
-10
-9
-9
-9
-12
-12
-9
-4
-8
-9
-8
-8
-4
-8
-11
-9
-10
-9
-13
-9
-13
-7
-5
-8
-13
-8
-6
-7
-6
-10
-10
-9
-10
-10
-12
-12
-17
-12
-17
-17
-19
-14
-13
-12
-17
-17
-17
-15
-12
-17
-15
-11
-12
-16
-17
-18
-15
-15
-17
-17
-21
-16
-13
-17
-19
-19
-18
-16
-18
-20
-23
-21
-21
-18
-25
-25
-18
-17
-17
-19
-19
-13
-11
-12
-13
-13
-12
-12
-19
-22
-20
-22
-20
-22
-21
-22
-16
-16
-15
-17
-20
-25
-40
-63
-87
-101
-105
-104
-96
-79
-55
-29
-5
4
11
14
15
9
3
3
-4
0
0
-2
-5
-5
-4
-1
-3
-6
-5
-2
-5
-5
-9
-12
-10
-7
-6
-12
-10
-9
-13
-10
-15
-13
-8
-9
-11
-13
-15
-14
-13
-11
-17
-15
-15
-13
-17
-21
-21
-18
-21
-22
-23
-26
-25
-23
-30
-33
-31
-31
-30
-34
-37
-41
-37
-37
-41
-42
-43
-37
-38
-38
-38
-37
-31
-30
-29
-26
-24
-16
-11
-11
-9
-8
0
6
2
3
5
10
10
11
8
7
15
13
14
15
16
18
17
18
16
15
15
16
17
10
8
9
12
7
8
8
9
7
10
10
10
10
8
5
3
3
7
8
10
4
5
10
9
10
8
9
9
11
6
-1
3
5
6
6
3
1
6
6
5
4
1
3
2
4
-2
-3
-1
1
1
0
-5
-2
-2
-4
-7
-7
-9
-7
-9
-12
-13
-12
-9
-8
-12
-13
-10
-9
-9
-9
-9
-10
-8
-10
-14
-14
-12
-12
-14
-14
-15
-14
-10
-14
-12
-12
-9
-9
-8
-9
-10
-11
-10
-10
-15
-16
-12
-8
-14
-15
-18
-15
-17
-15
-18
-18
-19
-16
-21
-18
-20
-17
-13
-14
-17
-13
-12
-13
-13
-14
-15
-17
-10
-14
-16
-13
-14
-13
-15
-17
-17
-16
-16
-15
-18
-21
-17
-11
-17
-19
-19
-16
-15
-16
-17
-13
-9
-6
-10
-9
-13
-7
-6
-6
-10
-9
-5
-7
-7
-10
-8
-7
-8
-7
-9
-12
-8
-7
-5
-5
-3
-9
-12
-35
-56
-79
-90
-97
-98
-87
-70
-44
-20
-5
3
12
17
14
11
4
2
-2
-2
-7
-8
-9
-7
-6
-8
-10
-14
-10
-10
-12
-13
-9
-10
-10
-7
-13
-10
-7
-8
-7
-11
-12
-13
-14
-13
-15
-18
-13
-10
-17
-17
-14
-13
-15
-15
-20
-17
-16
-13
-19
-22
-20
-22
-20
-26
-24
-30
-28
-26
-32
-36
-36
-38
-36
-38
-39
-41
-37
-35
-32
-35
-34
-28
-25
-23
-25
-21
-17
-10
-10
-10
-4
0
8
10
10
13
13
17
15
12
17
20
19
20
18
15
21
19
19
18
16
19
21
17
16
11
12
8
5
-1
1
2
3
2
1
0
3
5
2
0
0
4
3
1
-3
-3
-7
-7
-7
-9
-8
-10
-11
-9
-11
-9
-8
-8
-14
-14
-13
-10
-12
-12
-15
-14
-15
-13
-12
-14
-16
-13
-9
-10
-9
-11
-10
-10
-12
-14
-16
-17
-12
-11
-14
-12
-8
-9
-9
-11
-10
-6
-4
-4
-6
-3
-5
0
-2
-5
-7
-1
2
0
-4
-7
-1
2
-3
-2
-1
1
5
4
1
-1
-2
1
-3
-5
-4
-2
0
-2
0
1
4
7
10
4
8
12
11
12
10
12
14
17
15
9
11
11
12
10
9
7
12
11
11
9
9
16
17
14
11
11
11
16
15
9
9
13
14
10
9
7
12
9
8
6
8
10
13
13
14
11
14
18
16
14
16
15
17
18
17
16
20
18
17
13
10
14
18
18
18
17
14
4
-16
-38
-59
-71
-73
-72
-64
-41
-12
8
20
30
35
39
37
33
28
26
23
18
15
12
12
13
13
11
7
8
8
8
10
6
4
6
5
5
-3
0
-2
3
0
-4
-5
-5
0
1
-1
-5
0
2
-4
-5
-5
-4
-5
-6
-8
-9
-7
-6
-8
-11
-14
-13
-18
-18
-23
-24
-23
-24
-28
-31
-29
-28
-29
-30
-31
-31
-33
-33
-34
-37
-37
-30
-28
-24
-25
-19
-14
-9
-7
-3
0
5
9
12
7
6
8
9
10
5
8
10
9
12
7
9
9
11
9
7
7
10
7
8
5
5
6
6
4
5
4
8
8
10
5
2
6
7
3
-1
-3
-5
-3
-7
-4
-6
-4
-2
-5
0
-5
-5
-4
-3
-5
-4
2
1
-4
-6
-5
-6
-4
-5
-7
-6
-5
-5
-7
-4
-7
-5
-6
-9
-6
-6
-6
-2
-5
-11
-7
-8
-4
-4
-9
-9
-5
-5
-9
-13
-9
-9
-3
-7
-8
-10
-8
-3
-9
-13
-9
-9
-9
-9
-12
-13
-13
-11
-9
-15
-15
-13
-12
-14
-14
-15
-14
-13
-15
-17
-14
-12
-12
-14
-14
-12
-12
-11
-12
-16
-16
-14
-13
-14
-15
-15
-15
-10
-13
-11
-13
-12
-14
-16
-20
-18
-19
-22
-17
-20
-22
-20
-14
-13
-16
-14
-15
-13
-13
-15
-13
-14
-12
-17
-19
-18
-16
-12
-16
-18
-18
-16
-14
-13
-18
-17
-12
-9
-12
-11
-10
-11
-9
-11
-12
-13
-11
-11
-9
-11
-8
-9
-3
1
-3
-6
-2
-3
1
3
8
12
7
2
-15
-33
-52
-65
-80
-87
-80
-64
-43
-21
-1
15
30
31
34
26
19
16
11
9
3
3
3
2
-2
-5
-5
-4
-3
-5
-11
-11
-11
-8
-12
-13
-13
-13
-14
-12
-15
-15
-12
-10
-7
-13
-15
-11
-9
-10
-12
-14
-10
-8
-9
-13
-10
-13
-11
-13
-16
-18
-18
-19
-22
-23
-28
-28
-27
-29
-32
-36
-36
-36
-38
-40
-41
-40
-36
-34
-37
-41
-34
-34
-34
-34
-32
-27
-20
-17
-14
-15
-8
-3
-4
-5
-3
0
5
6
5
7
11
11
11
11
9
9
10
10
6
4
4
6
5
-1
2
2
7
5
2
-1
2
0
3
-3
-5
-2
-2
-2
-5
-3
-3
-2
-1
-4
-4
-4
-4
0
-6
-9
-7
-4
-5
-3
-5
-2
3
0
-1
2
1
2
4
2
-1
0
3
-1
-3
-3
-3
-4
-3
-5
-8
-8
-3
-7
-11
-8
-6
0
-4
-5
-8
-4
-2
-2
-7
-6
-7
-4
-7
-9
-9
-8
-8
-6
-9
-12
-5
-6
-9
-10
-6
-8
-3
-5
-6
-11
-8
-8
-6
-10
-11
-8
-10
-8
-15
-16
-17
-11
-17
-19
-15
-14
-13
-13
-13
-15
-11
-13
-12
-14
-14
-11
-10
-12
-13
-14
-12
-12
-12
-12
-12
-10
-11
-11
-12
-14
-10
-12
-13
-12
-15
-12
-12
-13
-14
-14
-12
-10
-13
-14
-16
-14
-14
-16
-21
-23
-20
-18
-21
-21
-22
-18
-21
-22
-21
-22
-19
-14
-15
-18
-19
-19
-13
-16
-16
-17
-17
-16
-19
-18
-21
-17
-17
-17
-18
-14
-10
-9
-13
-26
-47
-66
-84
-97
-104
-102
-86
-62
-38
-17
3
14
23
23
20
13
10
12
3
1
-2
-4
-3
-3
-9
-12
-11
-9
-13
-15
-17
-19
-18
-17
-21
-24
-21
-20
-19
-20
-17
-16
-18
-14
-15
-16
-16
-14
-15
-17
-21
-16
-18
-18
-22
-21
-18
-19
-16
-21
-26
-25
-24
-24
-30
-32
-28
-31
-31
-36
-37
-34
-34
-36
-40
-39
-36
-34
-35
-35
-34
-33
-24
-24
-26
-26
-20
-22
-19
-15
-16
-10
-5
-2
-5
-5
1
6
7
6
8
11
15
18
17
9
14
14
16
16
11
16
11
11
7
6
6
9
10
8
6
10
11
13
9
7
10
11
8
9
8
6
11
7
4
3
7
10
6
8
6
5
7
5
-1
1
-3
2
1
2
2
3
9
8
5
3
8
6
7
5
5
8
10
7
6
5
9
10
10
8
5
8
4
5
4
7
4
9
6
3
2
4
4
2
1
1
2
4
4
2
3
-1
7
3
3
1
4
5
6
3
2
6
7
6
3
4
7
7
8
6
5
8
9
8
8
9
7
8
5
6
7
5
5
6
3
3
2
5
6
4
2
4
7
6
3
4
5
8
5
1
2
2
3
-1
-2
-5
-4
-1
0
-5
-3
1
-1
-3
-3
-5
-4
-4
-4
-5
0
1
2
3
1
-3
4
4
5
-1
0
2
3
3
6
4
7
9
8
8
7
8
10
10
10
11
15
15
-1
-16
-44
-61
-73
-79
-79
-69
-45
-20
6
18
34
40
42
40
34
29
26
23
24
20
16
16
19
19
17
15
14
18
17
17
13
16
18
13
15
14
16
18
13
12
11
11
11
13
12
8
11
12
9
8
6
7
5
7
3
-1
3
3
4
2
-4
-7
-6
-8
-16
-16
-18
-17
-19
-22
-27
-26
-27
-26
-32
-33
-33
-29
-33
-34
-32
-34
-28
-27
-25
-21
-20
-16
-11
-12
-11
-6
0
2
-1
0
3
7
6
2
7
7
8
9
9
6
8
8
10
8
9
8
10
9
7
4
3
6
6
4
3
3
6
3
0
0
1
2
3
1
-1
-1
3
2
4
1
4
5
7
0
0
1
6
3
4
-2
2
2
4
0
-4
0
-5
-2
-3
-5
-3
4
-1
0
-4
-5
-3
-7
-5
-5
-7
-4
-2
-6
-7
-8
-6
-4
-9
-9
-6
-4
-5
-8
-8
-11
-7
-4
-10
-12
-12
-7
-7
-8
-10
-9
-6
-8
-10
-13
-10
-11
-9
-15
-16
-13
-10
-13
-10
-14
-9
-10
-9
-10
-11
-11
-8
-7
-10
-10
-9
-4
-6
-8
-7
-9
-4
-5
-5
-9
-9
-4
-8
-10
-11
-10
-5
-3
-7
-8
-10
-5
-8
-11
-12
-11
-11
-10
-12
-17
-14
-11
-13
-12
-14
-13
-12
-10
-12
-15
-15
-13
-13
-15
-21
-23
-16
-19
-22
-25
-18
-17
-11
-13
-11
-11
-10
-9
-8
-12
-11
-8
-13
-11
-11
-14
-13
-15
-16
-16
-17
-13
-10
-10
-7
-7
-5
-10
-23
-41
-65
-78
-90
-99
-97
-82
-58
-32
-12
1
16
22
19
15
13
12
12
6
-1
-6
-8
-5
-4
-4
-7
-7
-8
-8
-9
-13
-12
-9
-8
-14
-15
-14
-13
-11
-12
-14
-12
-11
-13
-12
-13
-14
-7
-15
-15
-16
-15
-15
-13
-15
-19
-14
-13
-14
-18
-20
-22
-21
-22
-23
-24
-27
-24
-23
-29
-32
-33
-33
-34
-37
-39
-40
-38
-38
-36
-42
-37
-32
-32
-30
-33
-29
-18
-16
-14
-8
-8
-3
3
2
1
4
8
10
8
7
9
9
7
7
8
7
11
14
8
5
9
9
10
8
3
6
8
5
2
0
4
5
5
1
-1
2
4
4
1
0
0
1
0
-4
-8
-4
-6
-5
-9
-8
-8
-5
-5
-6
-8
-9
-11
-11
-13
-12
-13
-14
-10
-14
-13
-13
-8
-9
-11
-13
-13
-10
-13
-11
-15
-14
-11
-13
-14
-14
-16
-14
-17
-21
-21
-21
-20
-21
-21
-22
-26
-24
-24
-25
-25
-25
-21
-18
-17
-19
-17
-14
-13
-16
-22
-20
-19
-19
-17
-18
-21
-15
-14
-16
-18
-16
-17
-13
-18
-17
-18
-13
-13
-12
-17
-17
-14
-14
-19
-17
-15
-15
-11
-13
-14
-17
-10
-12
-8
-13
-10
-9
-6
-9
-9
-9
-8
-4
-6
-8
-9
-6
-9
-7
-9
-8
-7
-7
-7
-8
-8
-8
-5
-10
-11
-10
-13
-12
-21
-25
-22
-18
-20
-22
-25
-22
-21
-20
-17
-21
-20
-12
-14
-16
-20
-21
-18
-16
-19
-21
-21
-19
-19
-16
-19
-20
-17
-12
-12
-12
-13
-20
-37
-59
-82
-97
-102
-103
-93
-74
-49
-22
1
12
20
25
25
24
19
11
10
10
6
5
1
1
10
3
-1
-2
-5
-4
-6
-4
-8
-7
-7
-6
-9
-8
-8
-9
-6
-7
-11
-11
-9
-7
-8
-8
-7
-10
-11
-12
-15
-19
-16
-14
-19
-23
-22
-18
-17
-20
-27
-27
-25
-25
-28
-34
-33
-34
-33
-34
-37
-39
-36
-32
-40
-41
-41
-37
-39
-35
-37
-35
-29
-26
-25
-23
-20
-17
-11
-9
-10
-5
2
6
7
7
8
7
13
12
12
13
20
20
19
20
19
18
22
18
17
19
21
22
21
17
19
19
20
21
20
20
16
18
17
17
16
16
20
17
17
17
16
20
15
13
15
20
20
17
16
18
19
21
19
18
19
21
19
19
16
18
21
20
20
18
17
17
21
15
16
16
19
20
22
16
19
21
25
25
22
25
25
26
23
23
21
23
22
20
19
19
18
19
18
17
14
14
13
16
11
16
14
15
16
13
15
17
20
16
16
13
17
19
14
11
12
14
18
15
14
11
17
18
12
9
11
12
14
15
13
14
14
16
16
11
13
12
14
11
7
7
9
9
6
4
7
10
7
5
2
0
2
-1
-4
-8
-7
-6
-6
-6
-10
-13
-7
-4
-8
-8
-7
-4
0
-5
-5
-7
-4
-3
-6
-8
-7
-5
2
-2
-7
-6
-7
-6
-7
-8
-9
1
4
1
-8
-19
-34
-54
-74
-88
-95
-89
-74
-55
-31
-9
8
21
26
26
19
15
11
8
3
1
3
0
1
0
-3
1
-4
-3
-9
-6
-6
-5
-6
-6
-7
-5
-5
-5
-10
-10
-11
-8
-10
-15
-15
-16
-17
-19
-20
-21
-17
-17
-19
-23
-25
-25
-25
-26
-28
-27
-26
-27
-27
-33
-33
-32
-33
-37
-38
-41
-43
-45
-46
-47
-47
-47
-43
-45
-47
-47
-42
-43
-43
-46
-43
-39
-35
-34
-29
-25
-19
-18
-15
-10
-9
-6
-3
0
-4
-3
4
3
5
3
2
5
8
7
1
1
4
5
4
3
4
5
7
6
4
0
3
5
3
4
1
3
4
3
-5
-2
-2
-4
-2
-3
-3
2
3
2
-3
-2
-1
0
2
-3
-2
3
3
2
-2
2
-1
1
-1
-1
-6
-3
-2
-5
-6
-7
-6
-5
-5
-9
-8
-7
0
-3
-6
-6
-3
-2
-6
-7
-6
-6
-3
-3
-5
-7
-5
-3
-7
-9
-8
-6
-5
-7
-7
-5
-5
2
-4
-5
-6
-3
2
-1
-3
-4
-3
0
-5
-7
-7
-6
-2
-4
-5
-6
-4
-2
-2
-4
-6
-4
-5
-4
-9
-9
-9
-9
-13
-12
-11
-10
-11
-11
-10
-11
-10
-5
-8
-11
-9
-9
-9
-8
-10
-12
-11
-8
-13
-13
-17
-14
-11
-11
-13
-13
-12
-9
-9
-12
-12
-14
-12
-13
-15
-12
-6
-8
-8
-7
-6
-4
-2
-6
-8
-7
-5
-6
-5
-8
-13
-10
-8
-6
-9
-8
0
3
-2
-8
-20
-37
-58
-77
-93
-96
-92
-81
-60
-41
-20
-5
11
19
22
16
15
15
5
1
-3
-5
0
-6
-6
-10
-6
-3
-7
-10
-9
-9
-6
-9
-10
-7
-6
-5
-9
-9
-10
-9
-7
-6
-8
-9
-7
-6
-11
-13
-13
-15
-16
-17
-16
-18
-16
-21
-21
-25
-22
-22
-25
-28
-33
-38
-38
-40
-40
-44
-42
-45
-44
-45
-51
-49
-51
-50
-52
-54
-55
-55
-51
-51
-51
-47
-47
-42
-39
-39
-34
-27
-25
-20
-21
-15
-13
-8
-7
-7
-7
-6
0
0
-2
-3
0
3
-1
-3
2
-3
5
4
3
3
10
10
6
4
7
7
7
4
3
-3
1
2
-3
-5
-9
-5
-2
-5
-7
-7
-5
-4
-2
-5
-4
-4
-5
-3
-7
-4
-2
0
1
-5
-7
-8
0
-4
-9
-8
-4
-1
-6
-6
-4
-7
-9
-6
-9
-9
-7
-8
-4
-10
-8
-6
-3
-2
-2
-5
-5
-4
-5
-6
-5
-4
1
2
-3
-2
2
0
-2
-3
-3
0
3
2
0
3
7
7
4
3
6
8
5
8
6
5
6
7
8
4
2
3
3
5
2
2
1
4
-2
-4
-4
-2
3
-3
-4
-4
-3
-1
-4
-6
-6
-4
1
-2
-5
-6
-6
-5
-7
-9
-10
-8
-9
-10
-12
-13
-12
-13
-11
-13
-12
-12
-9
-5
-8
-8
-3
-2
2
2
3
3
3
3
1
3
3
8
4
0
3
6
7
8
7
7
8
-8
-29
-53
-71
-85
-88
-83
-71
-49
-23
-2
18
28
34
35
34
28
21
18
16
15
15
10
5
6
6
3
2
-5
1
4
-3
-5
-3
2
3
4
-2
-2
2
-3
-3
-8
-7
-4
-3
-2
-8
-10
-7
-9
-6
-8
-10
-11
-4
-7
-9
-9
-8
-11
-15
-17
-16
-16
-16
-17
-20
-21
-22
-21
-25
-28
-32
-33
-29
-29
-28
-32
-31
-23
-23
-26
-27
-20
-19
-14
-11
-10
-4
1
4
4
9
13
14
15
15
13
18
20
20
21
18
24
26
25
20
23
24
24
22
17
18
18
20
21
19
18
21
21
18
17
15
20
22
21
20
20
21
23
24
19
22
24
28
27
26
23
25
21
22
22
22
24
24
25
22
19
21
25
19
20
18
20
25
22
17
20
19
21
19
16
13
13
16
16
11
12
11
14
12
9
11
7
9
7
5
4
5
4
6
4
3
4
4
3
0
0
0
-1
-4
-5
-6
-5
-3
0
-3
-5
-1
2
4
-5
-5
-7
-4
-5
-6
-7
-7
-6
-9
-13
-8
-9
-8
-10
-9
-13
-10
-10
-11
-12
-13
-11
-13
-15
-14
-15
-13
-11
-10
-12
-12
-10
-9
-10
-14
-15
-10
-11
-8
-13
-15
-11
-10
-14
-12
-11
-15
-13
-16
-19
-19
-21
-14
-14
-16
-16
-14
-8
-13
-12
-12
-13
-14
-15
-20
-20
-13
-13
-15
-14
-18
-18
-15
-18
-19
-12
-11
-11
-15
-22
-40
-57
-75
-90
-103
-104
-93
-72
-53
-32
-11
7
16
15
12
5
4
3
-2
-3
-9
-6
-5
-4
-8
-10
-8
-7
-5
-6
-11
-12
-9
-11
-12
-12
-13
-13
-13
-15
-14
-13
-11
-13
-10
-14
-13
-13
-13
-17
-17
-16
-9
-12
-17
-18
-20
-16
-20
-25
-22
-24
-21
-22
-22
-23
-27
-25
-25
-29
-35
-32
-31
-36
-38
-39
-37
-36
-38
-42
-41
-34
-32
-29
-35
-31
-28
-23
-18
-18
-15
-9
-6
-2
0
3
4
10
16
11
12
14
15
15
12
13
13
15
12
9
12
16
16
17
11
7
13
16
14
11
7
12
12
11
8
9
9
9
13
8
6
7
9
11
8
8
11
13
14
9
4
8
7
5
3
1
4
5
5
1
0
-1
4
-1
2
3
-1
5
4
1
2
2
2
-1
-2
-4
-2
0
1
1
1
2
6
5
1
2
1
3
-1
1
0
-1
0
0
-5
-9
-9
-6
-9
-11
-12
-8
-6
-5
-7
-9
-6
-7
-6
-6
-8
-7
-6
-7
-8
-11
-9
-6
-9
-9
-10
-9
-9
-9
-8
-7
-8
-3
-4
-7
-13
-6
-8
-6
-9
-10
-11
-6
-10
-11
-15
-9
-8
-9
-10
-11
-9
-7
-6
-6
-10
-6
-3
-5
-9
-13
-9
-8
-8
-12
-12
-8
-7
-7
-10
-7
-9
-9
-10
-12
-12
-11
-11
-11
-14
-12
-14
-13
-18
-17
-19
-17
-14
-19
-19
-20
-19
-16
-14
-19
-20
-17
-16
-17
-18
-15
-14
-13
-13
-16
-15
-12
-15
-18
-21
-21
-20
-17
-20
-22
-21
-16
-15
-17
-15
-19
-13
-6
-7
-14
-25
-41
-51
-71
-86
-97
-91
-77
-56
-35
-10
10
24
30
31
26
19
17
16
11
7
10
7
8
2
3
2
3
6
3
1
1
5
1
0
-4
-2
-3
1
-2
-5
-4
-4
-4
-10
-8
-9
-10
-10
-13
-14
-15
-13
-13
-15
-17
-16
-16
-16
-21
-22
-23
-22
-22
-29
-26
-28
-29
-28
-29
-32
-33
-31
-28
-35
-36
-35
-33
-35
-39
-34
-35
-29
-30
-32
-30
-31
-27
-26
-24
-21
-16
-8
-8
-9
-9
-4
3
4
8
8
14
14
16
11
11
12
15
13
9
10
8
8
8
1
2
1
8
5
4
-2
3
5
5
0
1
4
5
8
4
0
1
1
6
3
-2
2
2
0
-1
-3
2
3
4
-2
0
-3
-2
-1
-5
-6
-5
0
-4
-5
-7
-2
-4
-3
-3
-5
-7
-4
-4
-2
-5
0
4
1
-2
-3
-4
2
2
1
-2
4
4
-1
-6
-4
-2
-4
-7
-8
-12
-8
-6
-7
-10
-12
-10
-8
-7
-10
-12
-12
-7
-5
-9
-10
-8
-4
-6
-9
-8
-5
-2
-3
-8
-7
-9
-5
-5
-8
-11
-6
-6
-7
-9
-11
-5
-6
-8
-11
-11
-11
-6
-11
-13
-11
-12
-8
-11
-12
-14
-10
-9
-11
-13
-16
-17
-18
-18
-26
-25
-26
-26
-26
-28
-29
-28
-24
-22
-22
-20
-22
-18
-18
-20
-23
-19
-20
-19
-18
-19
-18
-15
-17
-17
-22
-19
-19
-22
-20
-22
-23
-22
-19
-20
-22
-21
-13
-17
-17
-16
-13
-10
-8
-10
-9
-8
-6
-8
-19
-18
-21
-20
-22
-22
-25
-25
-17
-17
-13
-17
-22
-32
-52
-78
-97
-112
-112
-109
-98
-79
-52
-27
-8
0
7
7
5
2
-2
-8
-10
-8
-11
-8
-10
-9
-10
-10
-11
-12
-10
-6
-9
-10
-13
-11
-13
-13
-15
-15
-13
-11
-15
-13
-17
-11
-9
-8
-11
-11
-12
-10
-8
-11
-12
-11
-10
-9
-17
-15
-12
-11
-13
-16
-18
-17
-15
-16
-23
-23
-26
-23
-23
-24
-27
-28
-27
-27
-29
-31
-29
-27
-22
-26
-21
-22
-15
-8
-11
-8
1
8
13
10
12
15
19
19
20
20
22
25
23
23
23
26
30
30
28
25
26
27
27
25
23
24
23
23
22
20
21
21
19
18
16
20
19
20
19
15
20
17
18
17
17
19
23
23
21
22
24
22
22
20
19
20
19
20
20
17
19
18
18
16
12
15
16
17
14
12
14
13
14
14
10
11
16
15
12
11
12
10
9
7
7
10
12
13
11
9
10
10
11
8
8
5
7
9
7
9
12
11
11
8
4
5
3
4
-1
-2
1
3
3
5
-2
-1
0
-1
1
-5
0
2
3
0
0
-1
4
8
3
6
5
9
7
9
6
8
11
12
11
11
12
15
11
10
7
10
15
15
13
10
14
14
15
10
8
11
10
12
6
6
10
8
8
9
9
6
6
9
6
7
4
10
11
8
6
3
7
10
6
4
7
5
6
2
3
3
3
4
6
2
6
8
10
9
5
7
-4
-17
-38
-58
-76
-86
-91
-88
-74
-49
-24
-2
13
24
26
31
29
20
18
13
14
10
6
1
0
5
2
-2
-4
-2
-5
-1
-2
-5
-5
0
-4
-10
-11
-10
-8
-6
-7
-8
-9
-5
-5
-6
-8
-6
-7
-7
-11
-15
-14
-10
-14
-17
-18
-18
-18
-19
-21
-26
-26
-26
-26
-30
-32
-31
-33
-31
-39
-44
-42
-45
-44
-48
-48
-48
-46
-46
-48
-49
-47
-42
-39
-38
-35
-29
-26
-20
-21
-19
-17
-11
-8
-7
-8
-8
-5
-3
-3
-3
-2
0
-2
-6
-9
-6
-5
0
-3
-4
-1
2
2
-3
-3
-4
-3
-4
-5
-6
-4
0
1
-5
-4
0
2
1
-5
-2
-3
1
4
0
-5
-1
-3
0
-6
-7
-6
-6
-4
-6
-6
-6
-2
-5
-7
-6
-7
-7
-6
-6
-9
-8
-1
-2
-4
-8
-6
-5
-4
-5
-5
-5
1
-3
-8
-8
-9
-5
-6
-9
-10
-9
-9
-8
-8
-8
-12
-6
-9
-13
-15
-15
-11
-15
-13
-17
-14
-9
-13
-12
-17
-16
-15
-15
-18
-22
-19
-18
-14
-16
-14
-14
-13
-12
-16
-19
-16
-14
-17
-14
-13
-17
-16
-17
-16
-23
-18
-17
-16
-20
-19
-16
-16
-17
-19
-21
-12
-16
-14
-14
-17
-14
-11
-10
-12
-13
-13
-9
-9
-12
-12
-13
-13
-14
-15
-17
-17
-17
-18
-17
-17
-17
-17
-17
-17
-17
-18
-15
-15
-16
-15
-16
-16
-12
-16
-16
-15
-13
-10
-13
-13
-11
-9
-9
-12
-10
-10
-7
-3
-6
0
-6
-9
-18
-38
-62
-79
-89
-96
-94
-83
-61
-33
-12
4
16
25
28
26
19
15
12
14
8
5
5
2
6
6
4
-3
-3
0
1
-5
-9
-6
-5
-5
-9
-11
-10
-9
-8
-11
-10
-9
-5
-5
-9
-9
-13
-6
-7
-13
-12
-10
-13
-11
-13
-16
-19
-14
-12
-14
-15
-14
-15
-15
-18
-25
-25
-23
-27
-29
-28
-32
-31
-32
-35
-38
-37
-34
-33
-35
-35
-35
-30
-23
-24
-22
-16
-11
-6
-2
-3
0
1
4
6
3
8
8
10
8
5
6
5
8
4
4
7
8
12
7
10
10
13
14
12
14
13
14
17
12
11
12
14
13
8
4
7
8
7
3
4
4
5
5
5
1
3
4
5
4
2
4
0
2
-1
-6
-5
1
-3
-9
-4
-6
-5
-9
-9
-13
-11
-6
-6
-6
-7
-5
-2
-5
-7
-10
-12
-13
-13
-15
-16
-17
-18
-17
-21
-21
-18
-20
-21
-16
-21
-17
-13
-14
-12
-14
-12
-12
-9
-13
-14
-10
-9
-6
-12
-16
-14
-15
-11
-15
-20
-17
-18
-14
-15
-15
-15
-12
-13
-18
-17
-15
-15
-14
-12
-14
-14
-9
-11
-13
-16
-13
-15
-11
-14
-13
-14
-11
-12
-16
-14
-15
-12
-10
-13
-14
-10
-4
-4
-5
-5
-5
-6
-4
-6
-9
-7
-6
-6
-8
-15
-15
-12
-13
-12
-15
-15
-15
-10
-12
-11
-12
-9
-10
-10
-11
-14
-8
-7
-10
-11
-10
-8
-6
-6
-9
-8
-7
-5
-3
-3
2
-1
-11
-26
-51
-72
-89
-96
-99
-89
-72
-45
-18
-1
15
24
33
31
32
28
23
22
17
14
6
6
5
6
6
3
7
7
7
3
0
1
4
4
5
1
1
3
5
4
-3
-2
-1
0
1
-2
-7
-3
-2
-2
-5
-5
-7
-2
-5
-8
-6
-1
-3
-7
-8
-10
-14
-10
-17
-21
-25
-20
-21
-25
-28
-25
-24
-25
-27
-28
-33
-28
-29
-28
-31
-29
-24
-22
-25
-25
-21
-17
-14
-11
-6
-5
3
6
5
6
7
9
9
13
11
11
16
19
19
15
17
21
23
21
20
22
23
21
20
18
18
18
18
16
14
19
21
21
23
21
23
21
25
21
21
18
22
24
22
20
24
26
26
25
27
27
30
32
32
29
32
32
33
34
29
30
29
28
27
24
20
22
23
24
18
19
24
24
19
17
15
18
16
16
14
12
14
15
16
14
14
11
17
12
10
10
13
13
6
9
10
8
11
5
5
5
5
7
4
3
1
3
9
5
2
0
1
2
2
2
2
0
3
1
-3
-2
0
0
1
2
-1
5
6
2
0
-4
2
2
-4
-4
-7
-9
-7
-5
-9
-8
-6
-7
-9
-12
-13
-9
-6
-9
-11
-12
-12
-9
-12
-12
-15
-13
-13
-17
-20
-20
-16
-17
-17
-16
-17
-13
-12
-15
-18
-17
-12
-11
-12
-15
-15
-12
-13
-14
-17
-14
-13
-11
-11
-17
-13
-13
-6
-4
-7
-13
-20
-32
-58
-81
-92
-96
-95
-84
-68
-44
-15
2
12
17
20
17
18
9
4
2
-1
-2
-2
-6
-5
-5
-5
-9
-13
-13
-8
-11
-13
-12
-15
-14
-13
-10
-12
-16
-12
-11
-14
-17
-16
-12
-12
-17
-14
-14
-12
-15
-14
-18
-19
-18
-21
-20
-22
-23
-23
-21
-23
-26
-28
-24
-26
-30
-31
-35
-34
-33
-35
-39
-39
-37
-39
-38
-42
-46
-43
-41
-42
-43
-44
-38
-34
-33
-28
-25
-19
-12
-12
-12
-7
-3
2
1
1
-1
4
9
7
2
3
1
4
4
4
2
7
4
2
2
1
4
7
2
1
3
5
6
4
4
6
8
8
4
4
2
4
2
5
0
3
0
3
-3
-6
-3
-6
-2
-5
-8
-5
-4
-2
-2
-7
-9
-7
-9
-8
-13
-11
-8
-6
-7
-10
-9
-9
-6
-8
-13
-10
-10
-5
-11
-8
-10
-10
-4
-6
-9
-8
-8
-9
-9
-11
-11
-8
-8
-13
-17
-15
-13
-8
-9
-9
-9
-9
-7
-5
-9
-7
-8
-5
-8
-6
-10
-9
-5
-8
-9
-6
-7
-6
-6
-8
-9
-7
-5
-4
-6
-7
-6
1
-7
-9
-9
-8
-9
-10
-14
-14
-12
-8
-13
-14
-9
-10
-6
-7
-9
-9
-9
-6
-5
-11
-9
-7
-9
-9
-10
-12
-10
-10
-8
-14
-9
-8
-9
-10
-12
-13
-13
-11
-13
-17
-14
-13
-11
-12
-13
-14
-10
-10
-10
-9
-8
-10
-9
-9
-8
-11
-5
-6
-8
-9
-11
-9
-5
-6
-9
-13
-8
-4
-3
-6
-5
-2
-10
-24
-44
-68
-84
-91
-92
-91
-73
-47
-24
-5
10
16
21
25
20
14
12
9
9
7
5
0
0
3
0
-4
-5
-4
-4
-5
-9
-10
-6
-6
-6
-9
-8
-9
-6
-8
-13
-9
-13
-10
-8
-12
-12
-15
-11
-12
-13
-14
-11
-9
-13
-11
-14
-13
-13
-14
-18
-22
-21
-21
-22
-26
-30
-29
-31
-32
-39
-37
-41
-41
-45
-51
-49
-44
-46
-46
-47
-51
-45
-41
-42
-40
-41
-36
-33
-26
-31
-25
-20
-17
-19
-16
-14
-12
-6
-10
-10
-8
-7
-4
-5
-3
-6
0
0
-3
-6
-11
-7
-6
-7
-8
-10
-11
-9
-11
-14
-13
-11
-6
-9
-10
-10
-10
-9
-4
-7
-6
-6
-7
-6
-8
-8
-6
-4
-5
-5
-5
-3
0
-5
-4
-6
0
-3
-3
-3
-4
-3
1
5
3
3
3
3
1
0
-4
-3
0
-3
-4
-8
-5
-4
-6
-9
-9
-3
-3
-5
-7
-6
0
2
-1
-2
-2
-1
5
6
6
3
4
5
5
3
6
5
7
4
3
4
4
3
1
-2
-5
1
4
1
1
-2
2
2
1
-4
-5
-1
6
1
-3
-4
2
1
1
-2
0
0
3
-1
-2
1
3
4
0
-1
-2
1
1
-3
-3
-7
-2
-3
-4
-5
-5
-5
-5
0
-9
-9
-8
-4
-8
-8
-9
-9
-5
-10
-14
-16
-16
-12
-14
-16
-19
-16
-12
-13
-13
-14
-12
-11
-10
-16
-16
-17
-10
-14
-14
-14
-11
-10
-10
-8
-11
-4
4
-2
-9
-20
-37
-58
-79
-93
-100
-91
-77
-54
-32
-11
9
23
30
30
28
27
25
20
18
15
15
15
17
12
11
11
12
10
9
7
11
10
13
10
8
10
12
14
11
10
13
15
18
12
13
13
17
15
11
17
18
19
17
14
14
17
18
20
17
13
16
18
11
13
5
5
9
8
3
3
6
7
5
4
2
2
1
2
-3
-5
0
0
-2
-3
1
6
10
14
15
15
21
27
28
32
32
34
35
36
37
33
40
39
44
39
40
38
41
39
38
35
38
44
41
37
36
37
41
37
35
30
33
32
32
28
28
29
31
30
23
21
22
23
22
18
17
17
21
19
16
15
15
18
16
10
10
10
8
6
5
7
6
6
5
5
4
3
4
2
-2
-5
-1
-4
-5
-5
-6
-8
-6
-4
-10
-10
-9
-8
-9
-12
-14
-15
-14
-16
-15
-17
-15
-12
-12
-13
-17
-17
-16
-17
-18
-21
-17
-15
-16
-19
-19
-19
-19
-19
-23
-24
-21
-18
-19
-23
-21
-24
-18
-21
-24
-24
-20
-16
-16
-16
-22
-19
-18
-18
-22
-24
-22
-19
-23
-26
-29
-22
-21
-22
-25
-27
-25
-23
-22
-26
-26
-26
-29
-25
-30
-31
-26
-25
-27
-28
-30
-23
-22
-22
-23
-24
-22
-23
-25
-25
-27
-26
-22
-25
-25
-26
-21
-19
-18
-18
-19
-15
-17
-17
-21
-20
-23
-19
-19
-21
-22
-19
-18
-17
-19
-20
-21
-17
-19
-18
-19
-12
-9
-9
-20
-31
-47
-63
-83
-97
-104
-100
-86
-68
-45
-26
-7
8
16
14
10
11
8
4
0
-5
-2
-2
-2
-3
-4
-5
-4
-5
-5
-3
-5
-2
-3
-5
-10
-8
-8
-10
-14
-13
-13
-12
-13
-16
-15
-12
-10
-10
-13
-14
-7
-6
-8
-8
-13
-7
-9
-13
-17
-20
-18
-16
-19
-23
-23
-25
-25
-24
-31
-32
-32
-31
-31
-34
-39
-40
-38
-39
-41
-43
-39
-35
-35
-35
-35
-28
-25
-19
-18
-16
-13
-8
-4
0
2
5
9
16
13
9
12
16
13
14
14
12
15
18
14
16
16
19
16
15
17
14
18
15
15
13
16
18
17
15
13
16
16
17
15
11
13
15
14
10
9
9
10
10
5
4
4
5
1
-2
0
1
3
1
2
-1
1
3
4
1
0
0
4
4
0
-2
4
3
4
-2
-2
3
4
3
3
-2
2
3
0
-1
1
-3
1
2
-1
0
2
1
2
-2
-5
-2
-2
4
-3
-5
-3
0
-5
-3
-4
-3
-3
1
-5
-7
-4
0
-4
-9
-9
-8
-11
-9
-13
-13
-10
-10
-11
-12
-14
-12
-13
-11
-12
-14
-15
-11
-16
-18
-17
-16
-14
-17
-19
-19
-16
-15
-14
-19
-21
-19
-17
-17
-16
-19
-18
-16
-19
-20
-21
-18
-17
-17
-18
-16
-17
-13
-12
-18
-14
-14
-14
-13
-15
-15
-15
-14
-19
-20
-27
-29
-24
-24
-25
-25
-23
-20
-20
-23
-21
-23
-18
-16
-19
-22
-20
-21
-19
-19
-22
-22
-18
-17
-18
-20
-19
-12
-12
-14
-19
-32
-51
-67
-90
-111
-117
-117
-108
-92
-67
-44
-23
-7
2
1
1
2
-3
-10
-15
-17
-18
-22
-25
-29
-26
-26
-25
-28
-31
-28
-27
-27
-26
-26
-24
-27
-26
-25
-26
-29
-23
-23
-25
-23
-22
-23
-25
-24
-25
-26
-22
-21
-23
-27
-25
-20
-20
-25
-25
-25
-20
-23
-24
-25
-24
-23
-24
-29
-32
-31
-32
-31
-33
-39
-37
-31
-34
-37
-41
-40
-37
-35
-35
-36
-35
-27
-26
-28
-24
-20
-17
-10
-10
-6
-3
1
6
6
6
4
8
8
3
4
9
11
11
11
10
12
14
15
11
12
11
12
13
7
5
4
9
11
7
5
8
8
9
5
5
6
8
10
10
11
12
16
18
17
14
17
20
15
16
13
16
16
16
14
14
17
20
19
19
17
20
20
22
18
16
18
17
18
18
15
18
19
19
18
18
17
17
19
16
14
13
16
18
16
11
13
15
14
10
12
14
14
11
13
10
7
8
9
8
4
4
5
3
2
2
3
3
4
4
5
4
6
6
8
7
9
7
8
5
4
5
7
7
4
2
3
6
5
2
1
2
6
9
7
5
10
12
12
11
10
12
16
13
11
11
12
14
11
9
12
13
14
15
16
11
11
15
14
14
11
14
16
13
11
10
12
13
18
16
14
19
20
23
21
20
17
24
27
22
21
26
27
29
25
28
25
26
26
25
21
26
28
33
28
23
11
-6
-32
-51
-70
-72
-67
-55
-34
-13
13
27
38
40
42
42
37
32
28
20
19
19
21
17
14
11
15
13
14
9
9
12
9
7
7
7
12
10
9
8
5
5
9
7
1
2
4
3
1
0
-2
-4
-7
-8
-12
-11
-8
-10
-15
-16
-18
-16
-18
-19
-23
-21
-22
-20
-25
-28
-31
-30
-34
-32
-38
-42
-41
-42
-45
-50
-49
-42
-39
-40
-42
-37
-31
-26
-27
-26
-19
-13
-9
-9
-9
-7
-2
2
0
-4
-1
3
5
2
2
2
3
5
-1
4
1
4
1
2
0
-3
3
2
-2
-5
-5
-3
-4
-6
-8
-9
-4
-5
-5
-8
-7
-6
-7
-7
-7
-7
-6
-5
-1
-6
-7
-4
-5
-8
-10
-11
-8
-5
-9
-11
-11
-8
-8
-11
-10
-8
-6
-6
-6
-7
-10
-8
-9
-8
-8
-9
-8
-9
-9
-6
-6
-3
-3
-4
-13
-6
-7
-3
-8
-12
-11
-5
-8
-11
-12
-12
-9
-10
-12
-12
-11
-10
-10
-14
-14
-11
-11
-8
-11
-12
-13
-10
-14
-16
-18
-17
-14
-14
-17
-17
-12
-10
-11
-8
-9
-8
-8
-9
-9
-14
-12
-11
-10
-14
-16
-18
-15
-17
-20
-25
-21
-18
-18
-20
-24
-23
-22
-20
-22
-22
-26
-23
-23
-25
-26
-26
-22
-19
-18
-18
-19
-18
-15
-17
-17
-21
-19
-17
-17
-19
-21
-19
-18
-20
-22
-22
-21
-19
-21
-20
-17
-15
-15
-16
-15
-15
-11
-13
-13
-15
-12
-14
-14
-13
-16
-15
-13
-13
-12
-13
-8
-5
-12
-19
-37
-56
-74
-92
-100
-103
-97
-74
-53
-29
-10
7
18
25
24
16
13
9
8
4
-3
-4
-3
-5
-5
-7
-10
-10
-9
-10
-10
-11
-8
-7
-10
-13
-13
-7
-4
-8
-15
-12
-11
-8
-13
-11
-17
-16
-15
-15
-18
-19
-17
-12
-14
-21
-20
-15
-14
-17
-22
-24
-24
-24
-26
-28
-29
-26
-26
-29
-33
-32
-33
-36
-38
-40
-39
-40
-38
-43
-41
-38
-34
-34
-30
-33
-24
-22
-20
-18
-17
-15
-6
-4
0
2
3
8
8
8
8
7
10
14
12
13
13
17
17
11
13
13
16
17
16
13
15
16
13
11
11
11
16
14
8
9
8
7
9
8
6
6
7
9
9
6
8
11
6
5
3
1
2
8
2
-3
0
1
6
2
-1
-1
4
8
1
1
-3
1
1
1
-2
-3
-2
2
-2
-2
-2
0
2
2
-2
0
-1
3
2
2
3
1
-1
-3
-6
-5
-4
-1
-4
-10
-8
-6
-6
-8
-12
-12
-11
-10
-13
-14
-12
-10
-9
-15
-16
-11
-11
-12
-13
-15
-17
-14
-12
-14
-16
-15
-12
