# ASI test file format
# {"c261c5a084f8c6b6":{"device ID": "c261c5a084f8c6b6","comments": " 5 minutes  in supine decubitus position. ","keywords": "HRV, Rest","firmware version": "0.6.3","device": "FieldWiz + Belt","sampling rate": 250,"resolution": [16-bit],"date":"2020-04-22","column": ["ECG", "A1"],"sensor": ["RAW, ECG"],"label": ["ECG"]}
}
# EndOfHeader
-30
357
984
1486
1709
1809
1856
1875
1887
1890
1889
1891
1894
1893
1894
1895
1894
1892
1894
1894
1895
1893
1896
1891
1892
1891
1891
1893
1893
1892
1893
1889
1885
1799
1672
1537
1407
1285
1172
1072
980
892
813
739
672
612
560
519
490
473
459
450
443
431
429
421
415
411
405
400
396
390
386
381
373
371
366
360
351
335
313
288
263
241
217
195
172
155
141
122
109
99
87
78
70
64
52
49
44
40
32
30
27
27
26
27
25
28
27
28
25
25
28
26
25
25
24
27
28
24
26
23
23
23
22
18
16
11
11
9
9
6
6
4
5
2
1
-2
-3
0
-3
-7
-7
-4
-5
-7
-7
-6
-5
-6
-4
-5
-7
-5
-4
-3
-5
-2
-6
-5
-4
-5
-7
-4
-5
-9
-4
-6
-4
-5
-6
-6
-7
-9
-9
-9
-8
-7
-8
-9
-9
-9
-9
-9
-11
-13
-8
-8
-9
-9
-10
-9
-9
-9
-8
-9
-11
-10
-10
-8
-11
-11
-10
-8
-8
-10
-11
-10
-10
-9
-10
-11
-6
-7
-13
-8
-10
-13
-10
-8
-10
-10
-8
-11
-11
-12
-11
-10
-12
-11
-11
-11
-9
-10
-10
-13
-13
-10
-10
-10
-8
-10
-13
-11
-13
-10
-12
-12
-10
-10
-10
-9
-13
-11
-11
-12
-10
-10
-9
-11
-7
-10
-11
-8
-10
-9
-9
-10
-13
-11
-10
-10
-11
-10
-6
-9
-13
-13
-9
-10
-11
-12
-10
-12
-12
-11
-11
-8
-12
-10
-9
-9
-10
-10
-11
-12
-15
-12
-10
-11
-12
-11
-10
-13
-12
-14
-11
-11
-11
-11
-10
-11
-10
-11
-11
-11
-12
-10
-11
-11
-9
-10
-8
-10
-12
-10
-13
-8
-15
-11
-11
-9
-11
-10
-14
-11
-11
-8
-12
-12
-13
-14
-10
-11
-15
-13
-10
-15
-12
-12
-11
-12
-12
-11
-12
-13
-12
-13
-13
-9
-11
-13
-9
-11
-10
-7
-11
-10
-11
-11
-13
-12
-12
-10
-11
-12
-12
-10
-12
-15
-13
-12
-10
-12
-13
-14
-11
-13
-13
-12
-11
-9
-12
-15
-13
-12
-15
-13
-10
-11
-14
-11
-10
-12
-11
-13
-12
-9
-13
-11
-12
-17
-10
-12
-12
-13
-10
-12
-12
-13
-13
-13
-12
-14
-12
-13
-10
-13
-9
-12
-11
-12
-13
-12
-13
-11
-13
-11
-10
-10
-12
-13
-13
-13
-11
-10
-13
-10
-11
-11
-13
-12
-10
-8
-13
-11
-12
-12
-11
-12
-10
-14
-13
-14
-14
-12
-11
-13
-11
-12
-13
-11
-12
-12
-13
-13
-12
-14
-15
-16
-12
-13
-11
-13
-13
-14
-13
-10
-11
-12
-10
-13
-13
-11
-8
-11
-8
-10
-12
-12
-12
-11
-10
-13
-12
-11
-12
-11
-12
-11
-13
-13
-15
-13
-13
-11
-13
-13
-10
-13
-12
-14
-14
-12
-13
-14
-12
-12
-13
-10
-13
-13
-13
-13
-13
-10
-13
-13
-12
-13
-10
-10
-10
-10
-10
-11
-11
-12
-12
-13
-12
-11
-11
-12
-13
-12
-11
-15
-13
-13
-14
-12
-14
-13
-14
-10
-14
-11
-13
-13
-12
-12
-15
-14
-13
-12
-12
-11
-12
-11
-12
-10
-12
-13
-11
-14
-10
-13
-14
-9
-12
-8
-13
-10
-8
-12
-13
-9
-13
-12
-13
-15
-14
-14
-12
-12
-13
-13
-10
-13
-15
-12
-13
-13
-15
-12
-12
-12
-12
-14
-12
-10
-12
-11
-11
-11
-13
-11
-13
-11
-14
-13
-11
-12
-12
-12
-13
-11
-11
-12
-10
-12
-12
-16
-12
-10
-11
-14
-12
-14
-12
-11
-11
-13
-12
-12
-14
-13
-12
-11
-11
-11
-12
-12
-12
-10
-11
-11
-11
-13
-10
-10
-10
-11
-12
-13
-10
-12
-10
-12
-9
-12
-10
-12
-13
-9
-13
-11
-13
-13
-13
-14
-12
-12
-14
-12
-10
-10
-12
-12
-11
-13
-16
-17
-13
-11
-13
-13
-12
-14
-11
-12
-13
-10
-14
-12
-14
-12
-12
-13
-11
-13
-9
-14
-13
-11
-13
-12
-12
-12
-10
-13
-12
-13
-12
-12
-12
-12
-13
-14
-12
-13
-13
-13
-14
-12
-14
-13
-11
-11
-11
-12
-11
-13
-13
-13
-13
-13
-13
-12
-13
-15
-15
-10
-13
-8
-13
-12
-13
-10
-13
-10
-12
-14
-15
-9
-14
-11
-13
-15
-13
-12
-13
-12
-12
-13
-13
-14
-12
-13
-13
-13
-10
-14
-11
-11
-12
-10
-11
-10
-11
-12
-11
-13
-12
-12
-11
-14
-12
-13
-10
-14
-11
-10
-12
-13
-13
-14
-11
-12
-13
-14
-12
-13
-13
-12
-12
-11
-14
-14
-12
-13
-13
-13
-14
-14
-17
-17
-10
-13
-12
-13
-12
-12
-13
-12
-13
-12
-12
-14
-12
-10
-13
-12
-13
-13
-10
-13
-11
-13
-8
-9
-10
-14
-13
-13
-13
-14
-14
-13
-12
-13
-14
-13
-12
-12
-16
-12
-14
-12
-14
-11
-14
-13
-13
-12
-12
-13
-11
-13
-13
-12
-12
-11
-10
-9
-10
-11
-11
-10
-11
-10
-10
-11
-10
-10
-11
-13
-10
-12
-13
-13
-15
-13
-12
-12
-11
-14
-13
-13
-15
-12
-12
-14
-12
-15
-13
-14
-10
-13
-15
-12
-8
-13
-10
-11
-13
-12
-12
-12
-13
-10
-12
-10
-13
-10
-13
-10
-15
-12
-13
-13
-12
-11
-11
-11
-12
-13
-11
-14
-12
-15
-14
-15
-14
-15
-13
-15
-13
-11
-11
-12
-15
-12
-14
-15
-13
-11
-13
-10
-12
-13
-14
-14
-11
-10
-10
-10
-10
-12
-13
-10
-12
-12
-12
-11
-13
-10
-13
-10
-10
-13
-14
-12
-12
-15
-14
-12
-12
-15
-15
-12
-14
-11
-14
-15
-12
-12
-11
-13
-11
-13
-10
-10
-11
-14
-10
-11
-11
-13
-11
-14
-14
-9
-10
-10
-11
-12
-11
-15
-11
-11
-9
-13
-12
-13
-12
-12
-12
-13
-13
-13
-12
-17
-12
-13
-13
-13
-13
-11
-13
-15
-12
-12
-10
-12
-13
-14
-12
-10
-13
-12
-12
-10
-12
-12
-13
-13
-13
-12
-14
-13
-12
-13
-14
-13
-13
-12
-12
-10
-13
-12
-11
-11
-12
-13
-14
-13
-13
-13
-12
-12
-13
-15
-14
-13
-11
-15
-12
-10
-14
-12
-12
-13
-12
-12
-12
-11
-11
-13
-11
-13
-12
-11
-15
-11
-13
-8
-13
-15
-12
-13
-12
-15
-10
-12
-11
-13
-13
-12
-13
-15
-15
-12
-17
-10
-15
-14
-13
-14
-13
-12
-14
-13
-10
-12
-8
-13
-13
-13
-12
-13
-10
-13
-13
-12
-13
-13
-13
-12
-12
-13
-12
-12
-11
-14
-12
-11
-15
-12
-13
-13
-13
-12
-14
-12
-13
-14
-13
-15
-13
-13
-11
-13
-14
-10
-14
-11
-12
-13
-13
-14
-10
-13
-13
-12
-11
-12
-10
-12
-10
-11
-13
-12
-11
-13
-12
-13
-14
-12
-12
-13
-14
-14
-11
-13
-12
-14
-13
-11
-13
-14
-12
-13
-13
-14
-11
-13
-14
-13
-13
-13
-14
-11
-12
-12
-11
-13
-10
-12
-15
-13
-12
-10
-10
-12
-12
-12
-13
-13
-13
-13
-11
-12
-13
-15
-14
-12
-14
-13
-14
-13
-13
-13
-14
-13
-14
-13
-13
-13
-16
-15
-13
-14
-12
-14
-13
-13
-11
-12
-13
-11
-10
-11
-13
-13
-8
-10
-11
-13
-13
-13
-11
-9
-10
-12
-13
-12
-13
-12
-13
-12
-12
-13
-12
-13
-13
-14
-13
-13
-10
-13
-15
-14
-14
-12
-15
-13
-12
-13
-12
-13
-11
-12
-11
-12
-9
-13
-10
-11
-13
-14
-13
-12
-12
-12
-11
-11
-13
-12
-10
-14
-13
-13
-15
-15
-11
-13
-14
-13
-12
-15
-14
-16
-13
-11
-15
-10
-13
-13
-12
-13
-12
-12
-13
-12
-13
-12
-11
-12
-13
-13
-11
-11
-11
-13
-11
-12
-11
-14
-10
-11
-8
-12
-11
-15
-11
-11
-12
-13
-14
-13
-14
-12
-12
-14
-12
-12
-13
-14
-13
-12
-12
-15
-11
-15
-11
-11
-13
-11
-10
-12
-13
-12
-8
-12
-14
-11
-11
-13
-12
-11
-11
-13
-10
-12
-12
-11
-14
-10
-11
-12
-12
-13
-14
-12
-12
-13
-14
-13
-11
-14
-15
-13
-14
-15
-14
-15
-12
-13
-12
-10
-10
-11
-11
-12
-13
-12
-12
-9
-13
-11
-14
-11
-13
-11
-11
-10
-8
-12
-12
-12
-12
-12
-13
-13
-10
-11
-13
-14
-13
-11
-13
-15
-13
-13
-14
-13
-14
-15
-12
-11
-15
-10
-12
-12
-11
-11
-13
-12
-11
-11
-15
-13
-11
-10
-13
-10
-10
-13
-11
-12
-13
-13
-8
-11
-8
-13
-12
-13
-11
-12
-12
-13
-13
-13
-13
-14
-11
-14
-14
-14
-12
-14
-15
-17
-14
-15
-13
-13
-13
-12
-13
-13
-12
-14
-12
-8
-12
-13
-13
-10
-10
-8
-11
-8
-11
-9
-10
-11
-12
-10
-11
-15
-13
-13
-12
-14
-12
-14
-13
-12
-12
-12
-12
-12
-12
-15
-12
-17
-27
-41
-59
-72
-80
-88
-94
-93
-103
-103
-103
-101
-106
-109
-112
-109
-110
-111
-112
-105
-99
-96
-96
-106
-115
-122
-131
-130
-132
-134
-128
-133
-132
-129
-132
-130
-132
-133
-131
-130
-133
-133
-133
-133
-133
-131
-133
-131
-132
-128
-132
-133
-134
-132
-133
-131
-133
-134
-133
-132
-131
-134
-132
-133
-133
-134
-134
-135
-132
-135
-136
-134
-135
-134
-133
-137
-137
-133
-135
-135
-137
-136
-137
-132
-135
-136
-132
-133
-135
-134
-137
-137
-135
-135
-134
-136
-135
-136
-138
-137
-136
-139
-134
-138
-134
-133
-132
-135
-136
-137
-139
-137
-137
-138
-136
-136
-137
-137
-136
-138
-138
-136
-137
-140
-139
-139
-134
-137
-139
-138
-138
-136
-140
-139
-137
-139
-135
-137
-141
-136
-138
-136
-141
-134
-141
-142
-134
-141
-141
-140
-145
-136
-136
-136
-138
-137
-142
-141
-140
-141
-143
-139
-142
-136
-142
-141
-141
-145
-141
-141
-139
-141
-143
-139
-145
-140
-143
-144
-144
-143
-137
-145
-142
-141
-143
-142
-145
-143
-140
-145
-143
-144
-143
-139
-144
-140
-144
-140
-142
-143
-140
-145
-141
-140
-145
-146
-139
-147
-141
-144
-140
-145
-143
-147
-143
-143
-143
-143
-145
-144
-145
-145
-145
-145
-144
-144
-147
-142
-145
-146
-144
-144
-141
-147
-143
-149
-144
-148
-141
-148
-143
-146
-146
-146
-146
-145
-144
-148
-149
-147
-143
-144
-144
-145
-144
-147
-148
-145
-143
-147
-149
-144
-147
-149
-143
-145
-149
-145
-149
-144
-151
-146
-147
-149
-149
-146
-145
-148
-147
-147
-147
-147
-149
-146
-147
-144
-150
-147
-149
-148
-147
-149
-147
-146
-150
-150
-149
-149
-148
-148
-149
-150
-148
-149
-151
-151
-151
-150
-148
-150
-150
-151
-149
-150
-154
-150
-148
-119
-92
-68
-50
-33
-20
-13
-7
-4
2
2
3
8
4
0
2
3
1
2
2
2
3
0
-2
1
2
1
6
-1
4
2
-1
-2
2
-4
-9
-5
-6
-5
-8
-6
-6
-5
-7
-9
-10
-17
-30
-28
-25
-17
-13
-13
-10
-11
-9
-9
-8
-9
-7
-9
-5
-7
-9
-9
-8
-10
-7
-8
-10
-13
-10
-6
-9
-10
-6
-10
-11
-11
-12
-14
-10
-14
-12
-13
-9
-14
-9
-9
-7
-8
-18
-31
-32
-29
-21
-18
-14
-12
-13
-12
-13
-9
-10
-8
-10
-8
-12
-9
-11
-11
-10
-11
-13
-11
-8
-6
-6
-11
-6
-7
-7
-6
-8
-8
-9
-12
-10
-11
-11
-13
-13
-9
-6
-10
-10
-15
-34
-40
-33
-25
-18
-17
-13
-11
-11
-12
-11
-10
-8
-13
-11
-11
-8
-11
-8
-10
-11
-11
-14
-10
-7
-7
-7
-8
-10
-11
-9
-13
-7
-12
-9
-9
-8
-7
-11
-8
-8
-13
-9
-11
-13
-27
-44
-42
-30
-22
-18
-13
-13
-11
-9
-7
-11
-6
-11
-9
-9
-7
-7
-8
-9
-9
-7
-5
-12
-8
-10
-5
-8
-7
-8
-9
-8
-6
-14
-11
-10
-7
-7
-8
-8
-7
-5
-9
-8
-10
-13
-39
-52
-45
-28
-19
-10
-7
-7
-11
-14
-17
-12
-15
-10
-8
-8
-9
-6
-9
-6
-9
-9
-10
-11
-7
-6
-9
-6
-2
-5
-6
-6
-11
-9
-5
-9
-10
-9
-7
-13
-7
-7
-8
-10
-10
-20
-45
-50
-45
-31
-24
-18
-13
-9
-8
-7
-9
-9
-8
-5
-9
-4
-9
-9
-7
-7
-6
-6
-4
-7
-7
-11
-11
-6
-10
-11
-10
-13
-9
-11
-10
-11
-10
-5
-9
-7
-9
-13
-10
-10
-13
-25
-49
-51
-41
-29
-20
-16
-13
-9
-8
-8
-9
-7
-6
-6
-7
-7
-9
-5
-9
-6
-6
-6
-9
-9
-10
-11
-9
-5
-5
-4
-7
-6
-6
-7
-10
-9
-9
-9
-10
-8
-10
-8
-6
-4
-10
-30
-61
-60
-47
-35
-25
-17
-13
-10
-7
-10
-9
-6
-7
-7
-6
-7
-6
-6
-9
-9
-7
-10
-6
-7
-3
-10
-8
-9
-9
-5
-10
-5
-7
-9
-11
-4
-9
-5
-11
-6
-11
-7
-9
-8
-13
-27
-62
-71
-56
-42
-29
-19
-11
-11
-7
-8
-7
-6
-6
-7
-5
-4
-7
-4
-7
-5
-8
-8
-4
-7
-6
-4
-8
-4
-10
-7
-11
-6
-6
-9
-10
-7
-6
-4
-9
-4
-7
-3
-4
-2
-4
-26
-40
-38
-33
-24
-20
-15
-12
-13
-9
-10
-13
-11
-9
-10
-9
-8
-9
-11
-6
-11
-9
-8
-9
-9
-13
-10
-7
-9
-9
-9
-11
-8
-13
-5
-13
-6
-9
-6
-8
-9
-11
-10
-8
-7
-15
-43
-80
-79
-61
-40
-29
-18
-17
-12
-6
-8
-4
-6
-6
-5
-6
0
-4
-6
-7
-8
-7
-5
-7
-5
-6
-9
-9
-8
-10
-4
-7
-6
-4
-7
-6
-11
-9
-10
-7
-7
-5
-9
-8
-8
-10
-20
-62
-88
-85
-60
-45
-29
-20
-17
-9
-8
-9
-6
-5
-8
-5
-7
-7
-5
-4
-4
-2
-4
-10
-8
-5
-7
-6
-2
-2
-7
-3
-4
-5
-2
-7
-6
-8
-7
-7
-11
-9
-8
-6
-6
-5
-6
-22
-54
-94
-96
-76
-51
-34
-23
-15
-9
-9
-6
-6
-4
-5
-4
0
-3
-5
-5
-2
-5
-5
-5
-4
-3
-6
-5
-5
-7
-2
-5
-5
-6
-8
-8
-6
-5
-6
-7
-10
-8
-11
-8
-6
-7
-10
-18
-45
-89
-102
-84
-60
-39
-29
-17
-10
-6
-9
-5
-5
-3
-5
-4
-4
-3
-1
0
2
3
7
7
6
-6
-11
-14
-8
-6
-3
-3
-7
-7
-6
-5
-4
-5
-5
-4
0
-10
-5
-7
-7
-7
-12
-31
-65
-108
-114
-86
-63
-41
-25
-18
-11
-5
-3
-3
-5
0
0
-3
-1
0
-2
-2
4
-1
-3
-3
1
2
-4
-5
-5
-2
-4
-5
-4
-9
-4
-8
-8
-7
-4
-5
-7
-9
-6
-7
-8
-9
-15
-36
-79
-118
-117
-88
-62
-40
-25
-17
-8
-8
-2
-5
-5
1
-2
-2
-1
-4
1
-2
-3
0
-3
-6
-4
2
2
-6
-6
-4
-7
-7
-5
-3
-3
-9
-4
-8
-8
-8
-7
-10
-4
-5
-9
-8
-13
-31
-64
-112
-130
-108
-76
-47
-32
-18
-12
-7
-2
-3
-3
0
1
1
-2
1
-1
0
2
0
1
-1
3
0
-6
-6
-4
-1
-1
1
-3
-3
-2
-3
-7
-9
0
-6
-5
-7
-4
-6
-7
-9
-8
-28
-55
-94
-138
-144
-109
-78
-47
-30
-17
-10
-9
-1
-2
0
1
1
-3
2
2
-2
1
4
0
-3
0
0
-3
-1
0
-4
-4
0
2
-4
-3
-2
-1
-2
4
1
3
-6
-15
-17
-13
-10
-5
-12
-27
-58
-98
-141
-166
-140
-101
-63
-35
-23
-11
-6
-3
2
4
5
5
4
3
2
1
4
5
3
4
3
3
6
1
0
-2
4
-5
-1
-2
-2
-3
-3
0
-6
-4
-2
-4
-2
-7
-8
-6
-9
-3
-15
-38
-75
-117
-158
-165
-128
-89
-55
-31
-19
-12
-4
-2
0
2
3
2
6
3
4
4
4
4
3
5
6
1
2
5
3
-3
0
-1
0
-4
-5
0
-1
2
-6
-6
-5
-4
-7
-4
-6
-9
-7
-7
-21
-45
-82
-124
-167
-181
-144
-99
-60
-38
-20
-8
-5
2
4
3
3
4
5
6
4
5
2
4
3
6
3
7
6
2
7
-2
3
-1
-6
0
-4
-7
-4
0
-6
-3
0
-6
-5
-3
-8
-8
-6
-6
-16
-38
-71
-108
-146
-183
-180
-139
-96
-56
-32
-17
-11
-4
-1
3
6
4
8
8
5
5
4
5
4
6
5
4
3
2
3
4
5
1
6
5
-1
0
-2
-5
-4
-1
-3
-2
-5
-3
-9
-6
-3
0
-2
3
6
17
21
3
-39
-48
-43
-27
-19
-16
-10
-11
-7
-7
-7
-6
-7
-6
-8
-5
-5
-5
-7
-6
-6
-2
-2
-6
-6
-7
-5
-10
-9
-2
-3
-4
-8
-9
-8
-7
-6
-8
-5
-7
-8
-9
-9
-8
-8
-17
-39
-65
-94
-124
-162
-194
-209
-184
-133
-85
-49
-27
-12
-7
0
5
7
6
6
7
9
9
9
9
6
7
7
7
8
6
4
6
7
3
3
1
0
4
-2
0
-5
-5
-4
2
-1
-6
-6
-2
-6
-6
-4
-12
-22
-43
-68
-104
-140
-171
-201
-214
-182
-128
-83
-47
-25
-11
-1
6
7
8
11
14
12
13
9
8
9
8
10
11
11
9
6
9
8
8
3
5
8
3
0
-1
1
1
2
-1
2
-4
-2
-8
-3
1
-7
-6
-10
-24
-45
-71
-99
-130
-167
-194
-214
-220
-192
-139
-91
-50
-23
-11
-1
8
9
13
13
13
14
11
13
15
13
13
13
12
14
9
12
11
7
11
9
6
5
6
4
2
0
5
-1
-2
2
-3
-5
0
1
-7
-2
-3
-8
-25
-48
-68
-82
-93
-95
-88
-76
-51
-32
-42
-72
-69
-51
-33
-20
-12
-5
2
-2
4
8
6
2
8
5
6
6
5
5
7
6
1
4
8
2
3
-3
1
5
2
-1
-1
-2
-2
1
-4
-4
-1
-6
-6
-3
-7
-7
-4
-4
-13
-23
-39
-61
-89
-113
-143
-171
-194
-215
-228
-231
-204
-145
-89
-50
-23
-7
4
7
14
12
17
15
17
18
13
16
15
16
16
13
16
13
9
16
11
7
14
8
5
8
5
5
5
3
-3
1
2
-1
-2
1
0
-6
-6
0
-9
-16
-32
-53
-81
-105
-128
-155
-180
-207
-223
-230
-231
-228
-176
-117
-68
-34
-13
3
13
14
17
19
21
23
21
24
21
22
22
19
19
20
20
18
18
17
15
11
14
13
10
8
9
5
1
8
4
7
4
2
3
2
-5
-1
2
-6
-17
-31
-47
-66
-88
-114
-138
-166
-186
-206
-225
-233
-237
-236
-231
-177
-117
-67
-30
-7
7
14
20
21
25
27
22
28
27
27
27
23
24
24
19
21
24
22
24
22
18
17
14
11
7
8
7
9
3
1
1
3
4
3
7
5
6
8
3
3
-29
-83
-90
-66
-51
-34
-21
-16
-9
-7
-2
-4
-3
-2
-2
-4
-5
-3
-2
-3
-2
-3
-1
-4
-3
-5
-4
-5
-9
-5
-6
-9
-5
-5
-2
-6
-4
-2
-9
-5
-5
-4
-4
-5
-9
-6
-11
-20
-32
-46
-69
-88
-108
-125
-148
-166
-188
-210
-230
-237
-239
-244
-244
-244
-213
-146
-85
-42
-13
4
15
21
25
28
27
29
27
28
26
28
27
28
26
24
26
25
25
25
23
19
16
16
14
14
16
8
5
7
9
4
1
3
3
3
-4
3
-2
-1
-5
-10
-26
-46
-64
-83
-103
-119
-141
-161
-175
-194
-213
-229
-239
-243
-247
-249
-248
-248
-205
-136
-78
-34
-8
11
22
27
33
34
36
33
37
35
36
35
33
34
32
32
36
31
30
28
23
27
23
20
16
20
14
14
12
10
8
9
10
3
7
6
1
3
1
0
0
-10
-21
-38
-53
-70
-85
-102
-116
-139
-153
-167
-184
-202
-216
-233
-244
-252
-250
-252
-253
-253
-247
-192
-121
-64
-24
4
19
29
36
36
39
39
39
43
42
40
43
45
45
45
43
37
28
28
25
28
28
26
24
22
19
17
15
14
14
8
9
7
7
3
6
2
3
2
0
-8
-19
-31
-45
-61
-75
-88
-106
-122
-133
-144
-159
-177
-186
-199
-211
-219
-232
-242
-248
-255
-257
-255
-257
-255
-257
-256
-255
-223
-150
-81
-30
4
29
39
48
49
51
52
55
51
53
52
51
52
50
49
49
48
50
46
49
43
36
36
32
29
25
24
25
21
15
14
16
15
12
10
10
8
1
6
2
-2
-5
-13
-23
-40
-51
-69
-83
-96
-110
-127
-140
-151
-164
-175
-189
-201
-213
-224
-233
-245
-253
-256
-259
-260
-260
-260
-261
-256
-258
-257
-194
-117
-54
-11
18
35
50
54
58
60
59
60
57
59
58
57
59
56
55
55
51
52
50
45
45
39
38
36
33
27
27
23
23
24
20
17
15
10
8
7
9
10
6
1
3
-9
-15
-29
-41
-54
-71
-82
-92
-105
-118
-130
-141
-152
-162
-173
-183
-196
-206
-220
-232
-237
-237
-223
-203
-168
-131
-83
-32
-10
-47
-121
-177
-158
-103
-51
-12
12
26
35
41
46
45
46
48
46
47
46
43
43
46
44
43
42
42
40
39
38
31
30
26
26
24
17
21
16
12
12
10
10
7
6
3
3
6
2
3
-1
-3
-15
-27
-35
-45
-53
-65
-80
-89
-95
-104
-120
-132
-147
-154
-165
-183
-193
-205
-218
-225
-236
-247
-253
-260
-262
-270
-269
-268
-270
-266
-269
-267
-273
-270
-268
-266
-269
-270
-269
-271
-232
-159
-78
-15
24
49
67
77
85
84
85
84
88
87
84
82
86
82
82
80
78
73
77
72
70
66
59
56
52
45
39
38
35
30
30
25
22
19
19
15
11
14
13
9
11
5
-2
-5
-12
-16
-22
-25
-31
-35
-44
-46
-52
-59
-56
-64
-68
-75
-74
-78
-82
-84
-86
-91
-93
-94
-96
-96
-101
-98
-100
-102
-104
-100
-102
-108
-113
-116
-116
-118
-122
-121
-124
-121
-125
-126
-125
-129
-128
-126
-129
-130
-131
-135
-141
-144
-142
-128
-116
-92
-61
-20
29
81
114
110
55
-14
-71
-109
-138
-147
-154
-155
-154
-156
-153
-152
-148
-147
-144
-144
-141
-141
-141
-138
-134
-132
-128
-127
-125
-123
-124
-121
-116
-113
-112
-112
-109
-105
-103
-98
-100
-93
-91
-93
-89
-87
-84
-79
-78
-76
-73
-71
-68
-68
-64
-61
-60
-60
-58
-57
-59
-59
-58
-64
-62
-61
-64
-69
-68
-72
-74
-75
-78
-78
-81
-81
-81
-84
-80
-84
-81
-84
-82
-84
-79
-83
-78
-73
-74
-75
-71
-69
-65
-66
-63
-59
-60
-59
-58
-55
-52
-55
-51
-50
-48
-49
-47
-47
-45
-44
-44
-45
-44
-39
-43
-38
-41
-38
-38
-36
-36
-35
-32
-33
-33
-30
-28
-28
-26
-29
-25
-22
-21
-21
-21
-20
-17
-17
-16
-17
-13
-12
-10
-14
-9
-11
-9
-8
-7
-7
-7
-3
-4
-3
-5
2
3
5
5
3
7
8
10
8
14
12
15
14
16
19
19
23
26
28
28
27
26
23
22
19
21
16
21
21
20
19
22
21
19
22
24
19
21
20
18
11
14
22
34
56
86
123
169
218
261
267
226
163
101
58
32
20
7
3
3
5
2
3
7
6
8
11
10
10
12
13
12
18
16
18
17
20
22
22
23
26
30
28
29
29
33
34
38
39
40
40
41
46
45
49
48
49
53
56
55
57
54
61
59
58
56
56
58
53
51
52
45
48
41
39
33
28
29
24
19
18
16
11
8
5
6
3
1
5
2
4
1
3
2
1
-1
4
8
7
6
7
5
8
8
7
10
11
11
10
12
8
14
10
11
12
9
9
9
13
13
8
10
11
13
9
12
10
9
8
10
12
13
12
16
9
15
16
11
11
12
11
15
11
16
15
13
17
14
15
18
14
16
17
18
15
14
12
14
14
13
15
14
14
15
13
14
16
16
16
17
15
15
18
19
17
18
19
19
22
21
23
23
22
27
28
27
27
28
26
25
22
17
20
20
17
15
13
15
13
14
17
16
14
12
13
12
6
7
3
4
14
29
52
81
122
165
219
255
250
200
135
79
37
14
-6
-13
-17
-18
-14
-17
-16
-16
-13
-14
-12
-15
-12
-9
-8
-8
-7
-5
-2
-4
0
-2
0
0
4
4
5
8
12
13
11
9
15
18
16
18
20
19
19
23
21
24
26
26
27
27
30
29
31
29
27
27
26
25
23
20
20
15
14
12
5
-1
-5
-5
-9
-11
-17
-14
-16
-19
-20
-22
-24
-24
-24
-24
-26
-24
-25
-20
-23
-23
-24
-23
-25
-20
-18
-18
-17
-16
-18
-17
-18
-16
-17
-17
-17
-16
-18
-18
-17
-16
-16
-19
-17
-15
-20
-15
-17
-17
-18
-16
-15
-16
-12
-12
-17
-17
-10
-13
-12
-15
-14
-13
-13
-11
-15
-12
-13
-15
-13
-13
-11
-13
-10
-13
-13
-11
-14
-8
-13
-12
-10
-9
-10
-11
-13
-12
-10
-10
-9
-15
-12
-11
-9
-9
-14
-11
-10
-11
-11
-8
-7
-8
-9
-7
-6
-7
-7
-7
-4
-6
0
-1
4
5
3
5
6
1
-2
-5
-6
-5
-5
-7
-5
-9
-6
-5
-7
-7
-8
-8
-11
-13
-12
-16
-20
-16
-5
16
43
79
125
177
224
248
223
163
91
44
11
-12
-24
-35
-39
-37
-40
-40
-40
-39
-38
-34
-32
-33
-35
-33
-30
-33
-31
-28
-29
-26
-24
-25
-24
-20
-22
-18
-16
-16
-15
-15
-13
-9
-6
-4
-5
-6
-4
2
-3
5
5
6
5
9
12
10
9
11
11
11
12
10
11
7
6
6
0
-9
-8
-12
-13
-15
-21
-20
-25
-25
-28
-28
-30
-33
-36
-34
-34
-37
-35
-34
-33
-36
-33
-34
-36
-35
-35
-31
-32
-32
-32
-31
-29
-30
-27
-28
-26
-29
-26
-29
-28
-27
-28
-29
-25
-28
-30
-30
-26
-31
-29
-28
-29
-27
-29
-29
-27
-25
-22
-23
-24
-23
-24
-25
-27
-25
-24
-23
-22
-22
-22
-20
-21
-22
-20
-17
-19
-19
-19
-16
-18
-18
-17
-16
-15
-17
-17
-17
-19
-15
-15
-16
-14
-16
-16
-15
-14
-19
-15
-13
-16
-13
-13
-14
-14
-12
-9
-9
-6
-9
-3
-4
0
2
-2
1
0
-1
-2
-7
-7
-7
-13
-10
-6
-11
-10
-9
-9
-10
-7
-11
-9
-10
-12
-16
-20
-24
-15
-5
20
47
86
132
187
238
261
225
154
84
36
-1
-23
-35
-36
-41
-37
-33
-29
-30
-28
-29
-28
-27
-28
-25
-24
-19
-24
-21
-15
-15
-15
-12
-12
-13
-11
-10
0
-5
-6
2
1
3
5
5
11
10
11
12
11
14
18
17
18
18
21
20
24
25
26
23
23
25
26
20
20
17
16
9
10
6
-1
-4
-9
-8
-14
-15
-15
-25
-25
-26
-25
-25
-24
-27
-28
-28
-25
-26
-24
-25
-29
-28
-27
-23
-25
-24
-20
-23
-20
-21
-21
-19
-18
-18
-17
-17
-16
-17
-14
-15
-14
-15
-14
-14
-13
-14
-13
-14
-15
-12
-13
-12
-12
-13
-14
-13
-11
-9
-9
-10
-9
-9
-5
-7
-7
-6
-6
-4
-4
-4
-4
-5
-4
-1
-3
0
-2
0
1
1
1
-1
-1
2
0
-1
4
1
1
4
5
3
3
5
8
9
12
13
16
11
14
12
8
6
7
8
5
2
2
1
1
5
6
3
4
3
5
3
4
-2
-9
-8
-6
7
29
51
91
134
185
242
272
236
178
111
56
18
-5
-17
-23
-27
-27
-25
-23
-23
-23
-21
-23
-18
-19
-19
-23
-17
-16
-16
-15
-10
-11
-11
-9
-7
-2
-1
1
4
1
5
1
7
11
11
14
14
18
17
16
21
18
19
24
26
28
32
31
33
31
33
32
33
32
27
30
22
21
18
17
9
6
3
-5
-7
-13
-14
-19
-18
-22
-26
-29
-27
-27
-30
-28
-28
-29
-30
-28
-31
-26
-27
-29
-27
-25
-22
-25
-23
-23
-26
-22
-20
-22
-20
-19
-20
-20
-20
-19
-19
-20
-23
-23
-19
-20
-20
-20
-20
-19
-18
-19
-20
-18
-19
-15
-14
-17
-16
-15
-19
-16
-19
-17
-15
-17
-17
-17
-12
-14
-13
-15
-12
-13
-13
-13
-12
-10
-10
-12
-10
-9
-10
-8
-7
-8
-4
-7
-5
-4
-5
-8
-4
-5
-4
-2
4
3
3
3
1
1
-1
-3
-5
-6
-8
-7
-8
-6
-6
-7
-9
-8
-9
-6
-6
-8
-11
-14
-21
-25
-21
-9
9
32
63
108
157
208
245
234
183
113
54
18
-8
-24
-36
-34
-37
-31
-35
-34
-35
-32
-34
-34
-31
-35
-32
-30
-30
-26
-27
-29
-25
-26
-24
-21
-19
-16
-18
-17
-15
-11
-12
-4
-5
-2
-1
0
4
6
4
8
8
7
14
12
14
16
17
18
20
19
20
20
22
22
20
16
12
7
10
3
1
-9
-10
-17
-21
-19
-23
-29
-33
-35
-34
-32
-37
-38
-38
-38
-39
-39
-37
-37
-35
-34
-35
-33
-30
-35
-32
-31
-31
-28
-30
-29
-27
-27
-24
-27
-25
-26
-23
-21
-24
-25
-23
-23
-27
-25
-22
-21
-26
-25
-23
-23
-26
-25
-21
-24
-19
-23
-21
-21
-19
-19
-18
-20
-16
-17
-19
-19
-18
-18
-16
-16
-16
-15
-18
-16
-14
-19
-16
-16
-17
-14
-13
-17
-15
-13
-13
-12
-15
-12
-8
-8
-13
-10
-9
-5
-5
-3
1
-1
-2
-1
-6
-6
-6
-11
-10
-13
-9
-13
-13
-9
-10
-8
-8
-7
-6
-8
-10
-17
-18
-19
-15
-8
8
30
65
107
151
203
238
237
187
121
64
23
-4
-21
-32
-34
-34
-34
-34
-33
-32
-33
-33
-33
-29
-28
-29
-27
-24
-25
-24
-20
-24
-21
-21
-17
-20
-16
-13
-11
-9
-10
-9
-5
-7
-4
1
2
2
4
7
6
12
11
12
15
14
18
20
18
18
18
20
17
17
16
11
11
10
7
1
-4
-5
-9
-11
-14
-20
-21
-26
-26
-29
-29
-33
-35
-32
-36
-37
-34
-37
-39
-35
-36
-32
-33
-37
-31
-30
-29
-30
-29
-27
-29
-28
-28
-24
-22
-24
-25
-26
-24
-25
-26
-26
-25
-23
-23
-24
-25
-23
-20
-20
-22
-21
-21
-23
-20
-20
-19
-18
-18
-16
-20
-16
-17
-18
-18
-17
-17
-12
-14
-17
-17
-18
-16
-17
-16
-17
-14
-19
-17
-16
-17
-10
-11
-12
-15
-11
-13
-11
-13
-9
-12
-13
-9
-9
-11
-10
-6
-6
-4
-4
-5
1
2
-5
-4
-4
-4
-7
-9
-11
-11
-9
-11
-12
-10
-12
-11
-8
-12
-11
-14
-14
-12
-21
-19
-20
-9
10
31
66
109
156
207
245
235
186
117
60
21
-11
-24
-34
-36
-38
-39
-37
-38
-37
-37
-36
-35
-37
-33
-32
-30
-31
-30
-30
-27
-23
-25
-21
-22
-19
-21
-15
-15
-11
-11
-9
-9
-7
-9
-3
1
-3
3
3
1
8
5
10
12
15
13
16
19
16
20
15
19
19
17
16
12
12
9
1
3
-5
-9
-15
-14
-23
-24
-24
-29
-31
-31
-33
-32
-38
-38
-39
-41
-38
-39
-41
-38
-38
-36
-37
-39
-37
-35
-35
-33
-34
-30
-32
-33
-35
-33
-31
-34
-33
-29
-31
-30
-33
-33
-30
-31
-30
-31
-28
-32
-30
-30
-30
-28
-28
-27
-27
-26
-25
-24
-25
-22
-26
-26
-21
-22
-20
-22
-21
-19
-18
-17
-19
-18
-19
-17
-19
-18
-15
-17
-14
-14
-14
-13
-15
-17
-14
-12
-13
-13
-10
-14
-15
-14
-11
-11
-9
-10
-13
-10
-9
-4
-6
2
2
-2
-5
-5
-6
-7
-9
-12
-10
-8
-8
-8
-6
-7
-10
-7
-10
-10
-8
-13
-12
-19
-22
-22
-12
-2
18
51
92
139
196
248
260
218
148
78
30
-5
-25
-32
-38
-41
-36
-35
-34
-32
-32
-33
-29
-30
-28
-28
-25
-24
-24
-22
-20
-19
-17
-17
-14
-15
-9
-8
-6
-6
-4
-5
-3
3
3
5
7
8
9
13
16
16
15
19
21
21
25
27
24
28
29
27
26
23
24
22
19
20
17
11
7
3
1
-2
-7
-9
-15
-16
-19
-23
-25
-29
-28
-30
-29
-34
-29
-33
-32
-33
-28
-25
-30
-27
-27
-26
-23
-25
-25
-21
-23
-21
-21
-21
-21
-23
-22
-20
-19
-18
-18
-17
-19
-19
-19
-21
-20
-21
-20
-20
-19
-18
-16
-17
-14
-14
-12
-12
-12
-17
-13
-13
-11
-10
-13
-9
-9
-10
-8
-11
-8
-8
-9
-10
-12
-10
-11
-6
-10
-5
-5
-3
-7
-8
-4
-4
-2
-3
-3
-3
-3
-6
2
5
5
12
13
9
9
6
5
3
2
4
2
3
2
2
-2
1
-2
-5
-2
0
-5
-5
-11
-13
-18
-13
-8
5
31
59
98
145
204
251
262
221
152
86
37
4
-14
-28
-30
-31
-32
-31
-26
-27
-24
-21
-22
-19
-21
-16
-18
-15
-18
-13
-11
-10
-10
-10
-6
-7
-5
-2
-6
0
-2
-1
4
4
5
7
12
12
15
15
17
17
18
19
24
23
26
23
27
25
23
25
24
24
19
21
20
15
15
12
4
3
-2
-7
-7
-13
-14
-19
-23
-24
-25
-29
-30
-30
-32
-28
-31
-32
-33
-32
-31
-31
-30
-33
-28
-28
-27
-25
-24
-25
-26
-20
-24
-20
-21
-23
-24
-22
-24
-23
-25
-24
-21
-23
-24
-22
-20
-22
-23
-24
-22
-21
-22
-22
-20
-20
-18
-16
-16
-20
-19
-17
-17
-16
-15
-16
-17
-16
-20
-19
-19
-18
-16
-16
-18
-15
-15
-16
-14
-17
-15
-16
-17
-17
-14
-15
-11
-15
-13
-13
-11
-11
-10
-10
-9
-8
-13
-7
-5
-5
0
-3
-2
-3
-4
-8
-7
-6
-10
-9
-11
-10
-12
-13
-10
-12
-9
-11
-9
-13
-11
-15
-17
-24
-25
-19
-9
14
37
74
121
173
225
251
224
163
97
42
8
-15
-28
-33
-31
-35
-37
-36
-31
-35
-33
-31
-30
-31
-28
-26
-29
-26
-26
-25
-23
-22
-21
-20
-15
-19
-18
-13
-13
-11
-10
-11
-9
-7
-7
-3
-3
4
3
5
7
4
5
9
10
12
11
13
13
14
17
13
13
14
14
12
8
6
4
-2
-5
-8
-12
-16
-21
-24
-22
-28
-30
-30
-36
-35
-34
-36
-34
-39
-37
-37
-39
-38
-39
-37
-36
-35
-33
-34
-35
-31
-30
-33
-29
-29
-26
-29
-27
-28
-31
-29
-31
-28
-31
-32
-30
-30
-31
-32
-28
-29
-30
-30
-28
-29
-29
-29
-29
-25
-30
-29
-29
-26
-27
-26
-25
-21
-22
-24
-24
-20
-21
-18
-20
-18
-21
-19
-17
-20
-19
-18
-16
-20
-21
-20
-18
-20
-18
-14
-18
-19
-17
-15
-18
-17
-19
-16
-14
-12
-12
-10
-9
-7
-5
-3
-2
2
2
2
1
-2
-4
-4
-3
-7
-4
-8
-9
-8
-10
-11
-11
-10
-10
-9
-8
-10
-12
-19
-21
-21
-12
3
23
57
91
139
191
233
243
203
139
75
30
-2
-20
-28
-31
-35
-36
-37
-34
-31
-37
-33
-31
-35
-34
-31
-33
-28
-26
-25
-23
-22
-25
-23
-20
-20
-17
-16
-13
-13
-9
-8
-8
-1
-4
-5
-3
2
3
6
8
8
8
9
11
12
13
14
15
15
18
17
17
18
15
14
9
12
8
5
3
-4
-7
-9
-10
-17
-19
-21
-21
-27
-25
-30
-29
-31
-32
-31
-33
-32
-32
-36
-32
-34
-35
-33
-31
-30
-31
-28
-25
-26
-29
-26
-25
-24
-22
-25
-25
-25
-25
-25
-24
-28
-24
-26
-26
-25
-26
-24
-26
-24
-22
-23
-25
-24
-23
-26
-25
-23
-26
-27
-25
-24
-21
-21
-20
-21
-22
-20
-22
-20
-24
-22
-24
-23
-23
-23
-21
-19
-17
-18
-20
-17
-19
-18
-17
-17
-16
-19
-15
-14
-17
-17
-15
-15
-14
-13
-14
-15
-12
-12
-16
-15
-8
-10
-11
-8
-7
-7
-6
-5
-4
2
-4
-4
-6
-11
-10
-13
-11
-11
-14
-13
-12
-12
-13
-14
-8
-9
-12
-13
-16
-25
-26
-22
-14
5
26
59
103
153
206
246
244
191
129
67
24
-7
-23
-30
-33
-33
-32
-33
-37
-31
-32
-31
-33
-29
-29
-29
-28
-29
-26
-27
-25
-22
-19
-18
-16
-17
-13
-14
-13
-11
-10
-11
-7
-9
-4
-4
-3
-2
3
-1
3
12
6
8
9
10
9
12
11
17
16
17
14
15
16
12
13
10
6
3
2
-6
-11
-12
-16
-22
-21
-23
-29
-29
-33
-32
-37
-35
-36
-36
-34
-38
-41
-37
-41
-39
-37
-39
-34
-34
-33
-32
-32
-29
-28
-28
-28
-28
-28
-31
-30
-29
-32
-29
-31
-30
-28
-30
-31
-27
-28
-28
-29
-29
-28
-27
-30
-29
-29
-29
-30
-27
-27
-26
-29
-22
-22
-23
-20
-23
-21
-23
-20
-22
-21
-18
-20
-19
-21
-16
-19
-15
-20
-14
-14
-15
-17
-16
-17
-17
-15
-15
-14
-17
-13
-15
-12
-13
-13
-12
-11
-15
-10
-10
-13
-10
-7
-6
-5
-2
-4
0
-5
-5
-5
-9
-12
-11
-12
-13
-8
-10
-11
-7
-9
-9
-11
-6
-7
-7
-12
-14
-17
-21
-17
-6
15
44
81
127
180
233
266
241
177
106
50
10
-16
-27
-37
-33
-33
-34
-33
-35
-32
-33
-30
-31
-27
-29
-26
-25
-23
-22
-21
-17
-16
-17
-16
-13
-12
-12
-8
-8
-7
-2
-4
1
4
5
7
11
11
12
13
13
14
19
19
20
22
25
24
24
26
26
25
20
22
23
19
19
16
16
9
7
2
-3
-6
-12
-16
-20
-23
-23
-26
-27
-28
-30
-35
-33
-35
-34
-37
-34
-36
-35
-33
-34
-30
-30
-31
-24
-27
-26
-24
-23
-25
-24
-24
-25
-25
-25
-24
-23
-25
-24
-25
-25
-24
-24
-21
-22
-19
-19
-20
-16
-16
-16
-17
-17
-16
-16
-17
-15
-17
-12
-17
-11
-13
-13
-10
-14
-9
-10
-9
-9
-9
-7
-8
-8
-7
-8
-7
-5
-9
-9
-6
-4
-4
-8
-7
-4
-4
-3
-5
-1
1
2
2
4
8
9
11
11
7
7
7
4
2
-1
0
-3
2
2
2
1
0
-3
0
0
-3
0
-6
-8
-12
-13
-12
4
25
54
91
140
194
244
261
227
159
92
40
7
-13
-22
-28
-26
-28
-25
-24
-24
-24
-25
-21
-23
-22
-20
-20
-18
-17
-17
-17
-13
-12
-11
-8
-9
-9
-5
-7
0
0
-1
1
3
7
6
6
12
11
11
15
14
18
20
19
24
23
26
23
25
25
28
29
26
29
24
22
24
17
13
9
6
-1
-2
-7
-17
-19
-22
-25
-30
-32
-31
-33
-35
-36
-35
-37
-36
-34
-35
-33
-35
-35
-34
-37
-35
-32
-29
-32
-31
-32
-29
-28
-31
-29
-28
-28
-29
-30
-31
-29
-28
-28
-28
-27
-29
-27
-28
-28
-29
-31
-28
-29
-28
-29
-29
-24
-26
-25
-25
-23
-22
-25
-25
-25
-24
-21
-23
-16
-22
-21
-20
-19
-18
-20
-21
-19
-21
-20
-18
-18
-16
-17
-16
-19
-17
-15
-13
-17
-16
-16
-16
-17
-16
-13
-13
-13
-13
-13
-8
-8
-3
-3
-5
-7
-7
-13
-11
-15
-14
-15
-15
-10
-14
-16
-14
-13
-13
-12
-11
-12
-17
-17
-24
-20
-17
-3
18
51
85
134
186
231
249
212
147
80
36
4
-17
-27
-34
-33
-36
-34
-32
-35
-30
-32
-32
-31
-30
-31
-27
-28
-23
-23
-23
-25
-23
-22
-18
-18
-16
-17
-11
-14
-9
-10
-10
-6
-5
1
-3
0
3
5
6
7
5
5
8
10
12
11
16
14
16
13
16
12
12
12
9
9
10
6
1
-3
-6
-10
-15
-19
-18
-23
-25
-33
-32
-34
-36
-34
-36
-37
-36
-37
-35
-35
-35
-35
-35
-32
-33
-33
-28
-30
-29
-28
-26
-28
-26
-30
-28
-26
-24
-27
-27
-26
-28
-28
-28
-26
-29
-26
-28
-26
-28
-26
-25
-29
-27
-26
-27
-27
-24
-26
-25
-25
-22
-24
-27
-29
-22
-26
-24
-25
-25
-22
-22
-21
-21
-23
-21
-23
-25
-23
-22
-22
-20
-20
-15
-19
-17
-17
-17
-16
-14
-16
-12
-14
-12
-13
-10
-11
-14
-8
-12
-8
-8
-3
-1
0
-3
-8
-9
-7
-12
-12
-11
-12
-10
-9
-7
-7
-9
-8
-11
-9
-12
-8
-12
-16
-20
-21
-18
-6
13
39
75
122
172
217
249
224
164
99
46
10
-11
-26
-31
-33
-32
-34
-35
-30
-33
-34
-31
-28
-30
-31
-27
-28
-26
-25
-25
-24
-25
-21
-20
-18
-17
-16
-14
-13
-10
-13
-12
-10
-8
-6
-5
-4
-3
0
5
6
7
7
12
12
12
16
18
16
16
16
16
15
13
14
14
9
7
6
6
4
-1
-7
-10
-11
-14
-22
-20
-23
-26
-29
-29
-32
-34
-34
-34
-37
-32
-33
-29
-34
-34
-33
-31
-30
-27
-28
-29
-26
-30
-26
-25
-27
-25
-25
-22
-24
-23
-25
-23
-23
-25
-25
-24
-24
-21
-25
-21
-21
-22
-23
-23
-21
-20
-18
-21
-20
-20
-23
-17
-22
-21
-18
-21
-16
-18
-17
-14
-17
-16
-16
-17
-13
-15
-16
-14
-13
-15
-15
-14
-13
-13
-14
-16
-11
-10
-10
-13
-12
-8
-11
-13
-8
-10
-6
-4
-6
-11
-9
-6
-6
0
-2
-1
2
0
0
-1
-4
-6
-6
-10
-5
-9
-12
-11
-9
-9
-7
-9
-9
-9
-8
-10
-10
-14
-19
-21
-15
-3
19
49
85
131
181
227
239
211
148
87
36
7
-10
-25
-34
-32
-38
-35
-35
-35
-34
-34
-33
-30
-34
-29
-32
-29
-28
-26
-24
-25
-24
-20
-22
-20
-17
-18
-18
-12
-14
-10
-8
-7
-8
-7
-2
-1
-3
1
2
3
2
8
8
9
7
11
10
13
14
13
16
12
10
7
6
7
3
5
0
-4
-9
-9
-10
-14
-15
-20
-21
-26
-25
-24
-29
-30
-31
-31
-34
-32
-33
-37
-31
-33
-32
-31
-28
-31
-29
-30
-27
-26
-26
-27
-25
-20
-22
-21
-23
-24
-25
-25
-24
-25
-27
-25
-24
-24
-24
-25
-23
-25
-23
-23
-22
-22
-22
-22
-22
-21
-20
-20
-21
-18
-22
-19
-19
-20
-18
-17
-17
-16
-18
-17
-21
-16
-14
-16
-15
-21
-16
-16
-17
-19
-16
-17
-13
-13
-15
-10
-14
-13
-12
-8
-9
-8
-9
-8
-9
-10
-6
-6
-8
-9
-6
-4
-4
-1
-1
2
2
0
0
-2
-4
-9
-6
-10
-9
-10
-11
-9
-9
-9
-5
-8
-4
-7
-8
-8
-13
-19
-20
-17
-3
16
39
77
119
173
221
252
230
169
105
51
16
-9
-22
-30
-34
-35
-35
-32
-36
-28
-31
-28
-29
-31
-27
-30
-24
-27
-25
-20
-25
-22
-20
-22
-22
-20
-18
-19
-16
-14
-12
-12
-11
-10
-8
-2
-3
-2
-3
0
4
3
8
8
6
8
9
7
9
9
9
8
10
8
10
8
8
1
4
-5
-8
-10
-13
-17
-18
-20
-24
-26
-28
-28
-35
-35
-35
-36
-37
-36
-40
-39
-40
-41
-41
-39
-38
-38
-35
-35
-36
-36
-34
-32
-32
-31
-33
-31
-31
-32
-29
-27
-30
-28
-33
-30
-33
-30
-30
-33
-27
-31
-28
-29
-29
-29
-26
-29
-28
-26
-29
-25
-26
-27
-20
-22
-23
-27
-22
-26
-24
-22
-23
-23
-24
-23
-20
-19
-19
-19
-18
-20
-17
-15
-12
-12
-18
-15
-16
-18
-15
-16
-16
-16
-15
-13
-17
-14
-11
-13
-14
-10
-11
-10
-7
-7
-7
-2
0
2
5
-1
-1
0
-6
-8
-11
-9
-8
-7
-8
-10
-9
-9
-10
-8
-11
-7
-11
-10
-16
-19
-19
-14
9
30
68
109
159
214
258
256
201
131
66
25
-8
-21
-29
-34
-35
-34
-31
-31
-31
-29
-28
-26
-24
-26
-22
-24
-21
-18
-17
-19
-14
-16
-8
-13
-10
-9
-7
-3
-3
-5
1
-1
1
3
3
5
3
8
7
9
11
14
12
15
17
16
18
17
19
20
21
18
17
15
19
17
13
8
8
3
-1
-5
-9
-11
-18
-17
-20
-23
-26
-27
-28
-31
-30
-34
-35
-36
-34
-34
-34
-33
-34
-30
-35
-31
-30
-28
-27
-33
-28
-29
-29
-26
-25
-27
-27
-31
-30
-29
-28
-25
-27
-26
-23
-23
-25
-25
-25
-24
-23
-20
-24
-19
-21
-19
-21
-22
-24
-21
-21
-18
-20
-21
-21
-16
-19
-18
-17
-20
-20
-21
-18
-16
-15
-16
-12
-13
-10
-12
-11
-14
-8
-12
-13
-10
-8
-6
-7
-5
-7
-4
-3
-2
3
2
4
4
3
3
-1
-3
-6
-9
-6
-7
-6
-7
-7
-7
-6
-6
-6
-7
-5
-5
-7
-9
-17
-17
-12
3
21
54
91
136
190
244
269
239
176
101
50
11
-7
-20
-28
-30
-29
-25
-22
-23
-27
-24
-21
-25
-22
-22
-21
-19
-19
-19
-16
-14
-11
-11
-12
-10
-8
-5
-7
-5
-5
2
3
3
4
7
6
8
9
12
14
16
15
16
19
22
19
22
24
23
28
26
28
25
24
22
22
22
19
15
13
6
4
1
-4
-9
-14
-14
-20
-21
-24
-26
-28
-24
-31
-32
-32
-33
-29
-30
-31
-32
-32
-33
-32
-29
-28
-26
-28
-25
-23
-27
-26
-22
-24
-25
-29
-24
-25
-22
-25
-25
-26
-26
-25
-25
-25
-26
-23
-20
-22
-25
-23
-24
-22
-21
-22
-24
-20
-22
-22
-16
-21
-18
-16
-16
-16
-15
-13
-12
-16
-15
-15
-14
-18
-16
-15
-13
-16
-17
-14
-14
-13
-11
-10
-8
-9
-14
-10
-11
-8
-8
-10
-8
-7
-3
-2
4
4
-1
3
0
-4
-6
-9
-8
-9
-8
-8
-10
-10
-13
-11
-12
-8
-12
-12
-12
-15
-20
-24
-23
-16
-2
17
48
90
135
191
235
249
208
140
78
32
-3
-21
-31
-36
-35
-35
-35
-34
-33
-34
-33
-30
-29
-28
-30
-27
-25
-26
-28
-24
-22
-22
-22
-16
-15
-16
-12
-12
-12
-10
-6
-9
-7
-4
-2
0
2
3
4
5
10
8
14
9
16
16
19
13
18
16
17
19
18
16
15
13
12
10
6
2
0
-9
-7
-13
-17
-20
-20
-26
-27
-30
-30
-35
-36
-35
-38
-39
-40
-40
-37
-40
-38
-38
-37
-36
-33
-32
-33
-29
-33
-29
-29
-28
-29
-28
-24
-29
-28
-27
-29
-28
-28
-28
-29
-27
-29
-29
-25
-31
-29
-25
-26
-26
-24
-25
-27
-25
-25
-27
-29
-24
-28
-23
-26
-25
-23
-29
-24
-24
-25
-22
-24
-22
-22
-23
-24
-20
-23
-20
-19
-20
-21
-20
-18
-21
-19
-21
-21
-18
-16
-15
-15
-16
-13
-7
-8
-8
-4
-1
-5
-1
-5
-8
-8
-8
-10
-13
-12
-11
-12
-11
-13
-11
-15
-11
-8
-11
-13
-13
-16
-22
-24
-19
-1
17
49
89
133
186
230
243
204
138
76
29
2
-18
-29
-33
-35
-36
-33
-31
-31
-32
-29
-30
-26
-28
-27
-29
-27
-23
-22
-21
-20
-18
-18
-15
-17
-13
-12
-10
-8
-7
-6
-2
2
4
1
5
5
7
7
6
7
11
12
17
14
20
16
17
21
21
19
18
18
17
19
16
12
12
9
3
-1
-3
-6
-10
-15
-18
-20
-22
-26
-25
-31
-29
-32
-32
-34
-32
-35
-36
-34
-37
-28
-32
-30
-31
-32
-30
-30
-30
-30
-30
-28
-28
-27
-26
-28
-28
-25
-27
-29
-25
-27
-22
-28
-31
-28
-29
-27
-28
-24
-26
-27
-26
-26
-24
-26
-24
-24
-25
-25
-24
-24
-23
-21
-24
-24
-19
-21
-24
-17
-18
-17
-18
-17
-15
-16
-11
-14
-12
-12
-11
-14
-12
-10
-13
-11
-16
-11
-11
-10
-11
-10
-6
-7
-7
-5
-1
-2
2
3
4
3
1
-2
-4
-9
-6
-7
-9
-8
-10
-9
-8
-7
-8
-9
-10
-11
-9
-13
-16
-17
-18
-15
-3
14
40
75
118
165
213
248
227
171
103
52
19
-10
-22
-29
-30
-27
-33
-30
-29
-31
-34
-28
-32
-28
-28
-26
-27
-25
-23
-20
-23
-19
-20
-18
-18
-17
-14
-15
-12
-8
-9
-10
-7
-7
-4
-1
-1
0
4
4
5
5
5
3
11
9
10
12
14
13
13
13
17
16
11
10
11
7
8
6
0
-5
-9
-13
-15
-17
-25
-20
-28
-28
-29
-33
-35
-35
-35
-35
-38
-37
-36
-36
-38
-36
-33
-35
-30
-31
-32
-32
-29
-28
-29
-31
-27
-29
-29
-26
-26
-26
-27
-26
-26
-28
-23
-27
-25
-26
-25
-22
-25
-23
-27
-25
-22
-25
-21
-25
-20
-22
-23
-19
-21
-20
-20
-21
-21
-17
-18
-16
-20
-20
-17
-19
-18
-18
-16
-17
-16
-16
-13
-14
-15
-15
-11
-13
-14
-15
-12
-11
-11
-12
-10
-9
-6
-11
-6
-8
-8
-5
-1
0
3
2
4
-1
-3
-6
-5
-7
-8
-9
-7
-9
-8
-11
-10
-8
-9
-6
-7
-8
-8
-13
-17
-14
-17
-5
12
37
70
110
162
208
241
233
179
113
57
18
-5
-20
-27
-31
-34
-34
-33
-33
-31
-33
-28
-30
-28
-28
-28
-24
-23
-25
-26
-22
-20
-18
-20
-17
-16
-17
-13
-13
-10
-8
-8
-5
-5
-1
-2
-2
3
1
4
6
9
9
9
13
16
15
16
15
14
14
16
17
14
16
11
12
8
5
6
2
-4
-7
-13
-14
-17
-22
-25
-25
-26
-32
-33
-34
-35
-35
-35
-38
-38
-37
-36
-36
-37
-36
-33
-35
-33
-29
-27
-29
-27
-28
-29
-25
-27
-29
-30
-29
-27
-29
-28
-29
-29
-31
-27
-27
-28
-25
-24
-26
-30
-29
-25
-27
-26
-27
-24
-24
-22
-25
-23
-23
-21
-23
-21
-23
-23
-23
-19
-20
-21
-20
-20
-20
-20
-19
-20
-19
-18
-16
-20
-18
-17
-17
-19
-21
-19
-18
-20
-21
-19
-17
-17
-16
-16
-16
-13
-13
-11
-13
-13
-8
-7
-8
-6
-2
-5
-3
-4
-9
-7
-14
-13
-13
-15
-15
-13
-9
-10
-10
-10
-10
-12
-11
-12
-12
-16
-19
-21
-19
-7
9
39
73
119
171
224
257
232
169
102
51
12
-13
-23
-31
-37
-35
-36
-39
-39
-37
-34
-33
-34
-32
-32
-29
-29
-25
-25
-26
-23
-20
-21
-19
-17
-18
-17
-13
-15
-13
-9
-10
-11
-6
-8
-2
-2
0
1
2
2
3
9
7
8
9
13
13
11
12
13
14
12
13
10
14
7
7
4
1
-2
-4
-9
-13
-19
-22
-23
-29
-30
-26
-31
-35
-35
-36
-38
-36
-40
-40
-39
-38
-40
-39
-35
-37
-35
-32
-33
-32
-30
-32
-33
-31
-33
-36
-32
-32
-31
-33
-36
-31
-32
-33
-30
-31
-33
-32
-28
-29
-30
-28
-27
-25
-25
-25
-23
-25
-23
-23
-23
-20
-23
-20
-17
-20
-20
-20
-19
-18
-20
-19
-16
-19
-14
-18
-13
-17
-14
-17
-14
-12
-14
-13
-12
-15
-12
-10
-13
-12
-12
-8
-8
-8
-6
-5
-4
-5
-7
-3
-1
4
7
7
6
6
4
3
3
-3
1
0
-5
0
-3
-3
-5
0
0
-2
-7
-6
-3
-4
-9
-12
-16
-17
-3
14
40
71
117
168
223
262
254
197
128
63
23
-4
-16
-27
-29
-25
-26
-26
-24
-24
-22
-22
-25
-25
-22
-22
-22
-21
-17
-18
-18
-14
-11
-11
-10
-8
-6
-2
-3
-3
4
1
3
4
8
3
9
8
12
12
12
18
14
14
18
18
15
20
19
19
22
22
23
20
20
22
18
17
15
13
7
3
1
-4
-8
-11
-12
-15
-17
-21
-22
-24
-24
-26
-28
-27
-27
-30
-27
-31
-28
-29
-28
-31
-28
-29
-23
-27
-25
-23
-23
-24
-23
-23
-23
-22
-19
-22
-24
-23
-22
-21
-22
-22
-20
-19
-22
-21
-23
-21
-20
-19
-21
-21
-17
-18
-19
-20
-19
-21
-19
-18
-19
-17
-18
-17
-13
-15
-15
-14
-13
-12
-13
-12
-12
-11
-9
-9
-10
-7
-8
-8
-8
-8
-10
-9
-9
-8
-9
-8
-7
-4
-5
-5
-5
-5
2
0
4
2
4
3
-1
-5
-7
-4
-8
-6
-8
-9
-8
-9
-9
-9
-9
-4
-7
-7
-9
-12
-16
-20
-17
-9
12
31
68
107
155
212
248
245
194
122
68
20
-2
-18
-25
-31
-29
-28
-26
-27
-29
-24
-25
-28
-22
-20
-21
-20
-25
-19
-21
-18
-16
-17
-14
-14
-13
-11
-11
-8
-9
-4
-4
1
-2
-1
4
3
5
5
7
7
9
10
13
12
16
14
16
16
16
17
16
17
16
16
15
13
10
8
6
3
-2
-7
-13
-15
-17
-22
-26
-27
-28
-28
-34
-34
-35
-34
-38
-39
-38
-40
-38
-41
-34
-35
-38
-36
-36
-35
-36
-37
-37
-32
-33
-30
-30
-31
-29
-27
-31
-30
-32
-30
-29
-29
-31
-30
-29
-28
-27
-31
-28
-29
-26
-30
-33
-28
-27
-26
-27
-25
-28
-25
-26
-27
-25
-26
-27
-24
-25
-21
-25
-27
-26
-25
-26
-24
-19
-25
-24
-20
-22
-18
-21
-20
-18
-21
-18
-20
-21
-22
-16
-18
-13
-14
-13
-10
-14
-10
-10
-9
-10
0
0
-2
-3
-1
-6
-4
-8
-9
-11
-12
-11
-11
-13
-10
-10
-13
-11
-11
-13
-13
-17
-19
-25
-20
-15
1
20
50
87
131
183
226
243
204
142
82
35
6
-14
-27
-32
-32
-33
-33
-31
-33
-32
-30
-33
-33
-30
-31
-27
-28
-29
-24
-21
-20
-22
-21
-18
-20
-20
-20
-17
-15
-13
-12
-11
-8
-9
-6
-5
-3
0
4
8
2
5
10
10
10
8
13
10
12
14
12
11
14
13
15
13
11
10
5
3
1
-1
-6
-9
-12
-14
-20
-18
-27
-23
-27
-26
-29
-30
-30
-31
-36
-36
-35
-33
-34
-31
-33
-32
-34
-29
-33
-31
-28
-28
-24
-27
-24
-21
-23
-21
-19
-21
-19
-22
-20
-23
-19
-22
-22
-23
-27
-22
-23
-21
-22
-23
-24
-24
-25
-25
-21
-24
-20
-25
-21
-20
-20
-20
-23
-19
-20
-21
-18
-17
-18
-20
-21
-19
-18
-18
-18
-18
-18
-13
-18
-14
-14
-17
-18
-17
-15
-14
-16
-15
-15
-15
-12
-8
-9
-7
-7
-9
-8
-5
-4
1
2
-1
-2
-4
-4
-5
-4
-8
-7
-9
-5
-10
-10
-8
-7
-8
-5
-5
-9
-6
-16
-17
-19
-12
-7
11
36
69
109
157
206
239
236
185
120
66
25
-4
-16
-27
-31
-31
-32
-32
-31
-31
-33
-30
-30
-30
-28
-27
-27
-26
-26
-23
-23
-20
-22
-18
-19
-18
-14
-12
-14
-12
-8
-10
-7
-5
-6
-3
-3
5
3
3
8
6
8
8
7
9
7
11
10
10
10
9
12
9
9
9
7
6
5
2
1
-9
-8
-12
-17
-20
-23
-24
-28
-32
-29
-36
-36
-37
-38
-37
-39
-41
-41
-40
-39
-41
-36
-34
-34
-36
-31
-31
-33
-32
-30
-33
-29
-29
-30
-25
-28
-27
-29
-29
-29
-30
-30
-28
-32
-30
-27
-29
-26
-26
-29
-31
-28
-29
-29
-30
-28
-29
-29
-29
-29
-25
-26
-26
-24
-25
-23
-23
-22
-23
-26
-20
-23
-23
-21
-20
-21
-21
-16
-20
-20
-19
-20
-21
-16
-19
-16
-17
-17
-15
-18
-16
-15
-17
-11
-13
-12
-14
-12
-13
-8
-8
-5
-2
1
-3
-3
-2
-4
-9
-14
-10
-10
-10
-12
-12
-12
-11
-7
-9
-9
-10
-12
-14
-15
-17
-21
-14
-9
12
38
73
116
166
220
252
243
188
118
59
22
-1
-18
-27
-28
-31
-30
-35
-32
-32
-33
-32
-30
-30
-31
-31
-31
-26
-26
-25
-22
-25
-19
-16
-14
-13
-10
-10
-11
-11
-8
-9
-6
-9
-4
-5
-4
1
1
4
7
4
8
7
8
9
14
14
14
16
14
14
15
15
16
12
12
7
8
6
4
4
-4
-9
-8
-16
-21
-20
-26
-25
-28
-30
-29
-32
-33
-32
-33
-33
-33
-34
-35
-33
-35
-31
-35
-30
-34
-33
-32
-31
-29
-31
-31
-29
-27
-30
-32
-31
-31
-27
-29
-31
-30
-33
-32
-29
-28
-28
-28
-28
-25
-28
-26
-27
-26
-25
-26
-25
-23
-20
-21
-24
-22
-22
-23
-22
-23
-23
-21
-21
-20
-20
-19
-18
-18
-22
-23
-20
-18
-16
-18
-19
-16
-16
-15
-16
-17
-14
-14
-16
-12
-10
-11
-9
-12
-6
-6
-7
-4
0
-3
1
2
-2
-1
-4
-6
-8
-7
-7
-9
-7
-7
-9
-6
-11
-9
-7
-5
-5
-5
-6
-13
-18
-21
-16
-4
19
47
89
133
189
240
262
227
155
89
38
4
-15
-23
-31
-34
-31
-31
-33
-32
-30
-30
-28
-29
-29
-29
-26
-24
-22
-22
-18
-18
-17
-12
-16
-12
-10
-7
-11
-7
-11
-6
-1
1
1
2
5
3
10
11
9
11
12
15
19
19
18
20
19
24
21
21
22
23
21
24
17
18
15
16
12
5
5
-1
-4
-10
-14
-19
-20
-25
-31
-30
-33
-37
-37
-39
-34
-38
-34
-34
-34
-36
-33
-28
-33
-33
-30
-31
-29
-27
-28
-29
-27
-25
-30
-28
-26
-26
-27
-24
-24
-24
-26
-24
-24
-24
-23
-23
-20
-22
-23
-23
-21
-21
-21
-23
-20
-22
-21
-19
-20
-18
-20
-17
-15
-16
-16
-13
-13
-13
-14
-12
-13
-12
-13
-11
-8
-12
-11
-11
-10
-9
-8
-7
-7
-5
-4
-5
1
-3
4
6
6
8
4
4
1
0
1
-4
-4
0
-5
0
-3
2
-5
2
3
-2
1
0
-5
-13
-17
-14
-6
9
33
63
108
158
211
256
262
210
138
73
27
-2
-16
-24
-27
-28
-27
-29
-26
-26
-26
-26
-24
-24
-25
-21
-20
-19
-18
-18
-18
-16
-15
-11
-13
-8
-8
-8
-5
-6
-2
-3
-2
1
4
5
7
10
12
12
14
16
20
21
21
20
26
25
24
28
26
28
28
28
27
25
23
22
19
16
11
7
5
0
-4
-11
-15
-17
-21
-21
-24
-27
-27
-26
-28
-34
-31
-33
-33
-31
-35
-33
-30
-31
-30
-26
-34
-30
-32
-30
-33
-32
-30
-28
-24
-25
-29
-28
-26
-27
-27
-26
-26
-25
-26
-27
-25
-26
-28
-27
-25
-25
-23
-27
-24
-22
-23
-25
-22
-22
-19
-21
-20
-18
-19
-19
-16
-19
-20
-16
-18
-18
-18
-19
-18
-15
-16
-17
-16
-17
-15
-14
-12
-13
-12
-11
-11
-11
-8
-6
-7
-3
-7
-4
-6
-9
-11
-10
-11
-14
-15
-14
-14
-13
-12
-13
-14
-11
-13
-11
-14
-13
-17
-21
-23
-20
-10
12
35
67
113
165
218
250
225
169
99
44
9
-15
-27
-32
-36
-38
-37
-34
-35
-37
-35
-36
-34
-30
-33
-31
-29
-26
-27
-27
-24
-25
-21
-20
-16
-18
-17
-12
-14
-13
-15
-11
-4
-9
-5
-3
-1
-2
0
2
4
7
6
11
10
13
11
11
10
9
14
14
17
13
11
13
11
11
8
4
-1
-7
-7
-11
-16
-19
-20
-22
-27
-30
-31
-32
-35
-38
-38
-39
-40
-42
-41
-39
-39
-37
-36
-39
-39
-36
-37
-36
-34
-33
-32
-33
-32
-31
-35
-34
-31
-34
-31
-31
-28
-32
-29
-28
-28
-29
-31
-24
-26
-24
-27
-23
-24
-26
-26
-24
-22
-24
-23
-27
-26
-22
-25
-20
-23
-24
-23
-22
-22
-21
-23
-20
-21
-18
-16
-20
-23
-21
-21
-20
-20
-19
-18
-18
-15
-15
-15
-13
-12
-16
-10
-9
-6
-6
-3
-5
-6
-9
-7
-10
-9
-11
-13
-14
-12
-14
-15
-11
-11
-10
-12
-12
-11
-12
-17
-19
-22
-23
-17
-2
19
50
89
136
187
231
243
204
142
80
35
6
-16
-24
-28
-33
-34
-32
-31
-30
-32
-29
-30
-28
-31
-27
-26
-27
-26
-26
-25
-20
-23
-19
-19
-16
-12
-11
-10
-8
-7
-6
-6
-5
0
-4
4
2
3
3
6
6
10
10
10
11
13
17
16
18
16
17
15
16
16
12
17
13
9
7
3
0
-5
-9
-10
-14
-15
-19
-21
-24
-29
-31
-29
-30
-32
-32
-37
-35
-34
-37
-37
-38
-36
-37
-35
-32
-31
-31
-31
-32
-29
-30
-28
-27
-25
-28
-26
-29
-26
-28
-26
-27
-31
-31
-28
-29
-28
-29
-27
-26
-26
-27
-24
-25
-29
-22
-22
-25
-22
-22
-23
-27
-25
-21
-22
-20
-21
-21
-22
-19
-21
-21
-18
-18
-21
-19
-14
-14
-15
-14
-13
-15
-14
-13
-13
-12
-11
-12
-17
-12
-11
-13
-8
-13
-9
-8
-11
-7
-5
-4
2
4
3
0
-4
-1
-5
-5
-7
-8
-9
-9
-8
-7
-8
-7
-9
-6
-6
-10
-10
-11
-13
-18
-21
-21
-11
10
35
70
113
163
211
242
225
170
103
52
17
-7
-24
-30
-33
-33
-33
-30
-32
-31
-32
-33
-31
-31
-29
-25
-26
-26
-20
-24
-22
-22
-21
-21
-17
-16
-15
-11
-10
-10
-8
-8
-3
-4
0
-3
1
-1
4
7
9
6
7
9
12
11
16
15
15
15
15
16
17
16
16
14
12
14
12
10
6
4
-3
-5
-8
-13
-16
-15
-16
-23
-23
-26
-31
-28
-29
-29
-30
-31
-30
-32
-34
-35
-32
-30
-30
-30
-28
-27
-27
-24
-26
-26
-27
-23
-25
-22
-23
-25
-24
-23
-23
-27
-26
-24
-23
-26
-23
-25
-25
-22
-21
-23
-23
-23
-20
-23
-20
-20
-16
-18
-18
-19
-20
-21
-20
-20
-19
-17
-19
-18
-20
-19
-15
-13
-17
-14
-17
-16
-14
-14
-11
-12
-13
-9
-11
-11
-11
-10
-12
-12
-13
-12
-11
-12
-13
-13
-11
-13
-9
-8
-9
-6
-5
0
-1
3
2
2
0
-2
-6
-11
-9
-13
-9
-9
-13
-8
-12
-11
-11
-10
-12
-10
-12
-13
-16
-20
-23
-17
-9
8
31
62
103
150
204
241
236
189
119
63
26
-3
-16
-28
-32
-32
-34
-32
-30
-32
-32
-31
-31
-27
-27
-29
-23
-22
-23
-21
-21
-21
-18
-18
-15
-16
-13
-15
-12
-10
-10
-11
-5
-6
-5
-2
-2
-2
4
4
4
8
6
5
8
12
13
14
12
14
13
11
14
15
13
13
12
11
10
3
-1
-4
-4
-9
-10
-12
-16
-20
-23
-25
-27
-32
-29
-29
-33
-31
-31
-35
-33
-35
-33
-34
-31
-31
-32
-29
-30
-29
-31
-29
-27
-28
-29
-24
-27
-24
-25
-24
-26
-25
-24
-24
-26
-23
-23
-24
-25
-22
-24
-27
-22
-21
-26
-23
-26
-24
-19
-21
-23
-21
-18
-20
-22
-21
-21
-22
-21
-19
-21
-21
-19
-22
-21
-24
-21
-18
-18
-21
-18
-18
-17
-15
-18
-19
-15
-19
-18
-15
-15
-14
-12
-12
-13
-12
-16
-14
-11
-14
-15
-13
-14
-13
-11
-7
-7
-7
-4
-3
0
-1
6
6
2
4
-1
-2
-5
-5
-8
-8
-10
-11
-9
-8
-9
-5
-7
-10
-9
-9
-11
-15
-18
-22
-21
-17
0
23
52
92
140
191
233
244
199
137
78
32
3
-19
-29
-33
-35
-34
-35
-35
-34
-35
-34
-35
-32
-30
-30
-31
-30
-28
-26
-22
-23
-20
-23
-20
-18
-16
-16
-13
-12
-12
-11
-9
-9
-6
-3
-4
-4
0
1
3
5
4
9
8
5
8
11
10
14
14
13
14
15
15
13
13
11
8
5
6
1
-4
-7
-11
-13
-14
-18
-17
-23
-24
-29
-28
-32
-36
-39
-40
-39
-41
-36
-36
-36
-38
-38
-39
-36
-37
-35
-35
-35
-33
-33
-32
-29
-28
-31
-29
-28
-30
-32
-33
-29
-29
-28
-30
-31
-28
-31
-27
-28
-30
-27
-27
-28
-27
-26
-27
-24
-24
-26
-22
-23
-21
-24
-18
-20
-20
-21
-18
-22
-19
-20
-20
-20
-19
-17
-16
-14
-15
-19
-16
-16
-16
-16
-16
-13
-15
-15
-15
-13
-11
-9
-10
-12
-13
-12
-14
-14
-8
-10
-8
-5
-6
-6
-6
-4
-2
4
-1
2
5
-1
-1
-3
-5
-4
-5
-6
-7
-6
-8
-9
-8
-7
-7
-8
-9
-9
-10
-12
-20
-21
-19
-11
10
31
73
110
161
216
258
252
197
124
63
21
-6
-24
-32
-37
-35
-33
-33
-30
-27
-31
-27
-26
-26
-22
-25
-23
-24
-22
-23
-23
-16
-19
-17
-17
-13
-12
-9
-9
-3
-7
-4
-4
-3
-1
0
2
2
3
7
8
8
9
14
16
9
13
14
16
13
17
16
16
17
18
14
12
13
8
6
5
-1
-1
-7
-11
-13
-20
-21
-26
-29
-29
-32
-35
-36
-37
-38
-40
-42
-39
-39
-38
-40
-36
-37
-38
-37
-36
-37
-36
-32
-34
-32
-33
-33
-32
-29
-37
-32
-34
-31
-33
-33
-31
-34
-29
-28
-27
-31
-30
-28
-29
-30
-28
-28
-29
-27
-30
-29
-29
-28
-27
-25
-24
-24
-24
-22
-21
-22
-19
-24
-24
-20
-21
-19
-21
-20
-19
-19
-19
-18
-21
-17
-18
-16
-16
-19
-15
-14
-14
-12
-13
-8
-8
-6
-6
-5
-1
0
2
-1
-3
-3
-6
-8
-9
-10
-8
-13
-11
-6
-6
-5
-7
-6
-2
-4
-4
-7
-11
-17
-18
-10
-1
22
51
93
137
194
246
270
238
164
100
42
9
-12
-26
-28
-28
-31
-29
-25
-24
-20
-18
-24
-22
-25
-19
-18
-17
-16
-14
-11
-10
-9
-11
-7
-4
-5
-5
1
-3
4
2
4
3
8
7
12
11
13
15
18
22
21
22
22
26
28
28
28
28
29
29
29
31
30
31
29
27
26
22
19
14
11
2
1
-6
-12
-14
-18
-22
-24
-27
-28
-31
-37
-37
-38
-33
-36
-35
-35
-32
-33
-30
-28
-29
-24
-28
-24
-26
-27
-25
-25
-24
-25
-20
-24
-22
-22
-27
-23
-24
-22
-21
-23
-24
-25
-22
-22
-22
-25
-23
-23
-18
-17
-19
-16
-15
-16
-17
-18
-16
-19
-14
-16
-16
-16
-16
-13
-11
-13
-12
-12
-11
-14
-16
-12
-8
-9
-9
-8
-11
-9
-6
-6
-4
-7
-4
-6
-5
-1
-3
1
4
1
4
1
3
-3
-8
-6
-5
-7
-9
-8
-8
-9
-8
-8
-7
-6
-6
-9
-9
-11
-18
-24
-20
-16
-7
12
39
80
125
176
233
257
227
163
98
41
8
-13
-29
-35
-37
-36
-34
-32
-32
-34
-33
-32
-32
-28
-25
-26
-27
-22
-25
-23
-20
-21
-21
-18
-21
-14
-17
-15
-13
-7
-8
-5
-5
-5
3
5
1
2
10
10
7
11
12
13
13
14
16
16
18
19
21
20
19
20
24
20
19
13
17
8
8
1
-3
-13
-15
-17
-21
-22
-26
-32
-33
-34
-38
-40
-42
-40
-42
-42
-43
-38
-39
-40
-40
-37
-37
-39
-39
-35
-34
-34
-31
-34
-33
-35
-31
-32
-31
-32
-31
-31
-33
-29
-29
-28
-28
-31
-29
-28
-29
-27
-24
-26
-22
-27
-26
-28
-26
-25
-27
-27
-29
-27
-27
-25
-20
-21
-21
-21
-20
-23
-21
-19
-16
-17
-15
-16
-17
-14
-16
-12
-14
-17
-17
-17
-8
-11
-11
-12
-13
-13
-8
-11
-10
-2
-5
-5
-2
0
-2
-5
-7
-4
-8
-7
-8
-10
-12
-12
-11
-13
-11
-11
-10
-8
-11
-8
-15
-17
-19
-21
-20
-11
6
32
68
109
158
210
247
235
178
114
56
19
-6
-21
-29
-33
-30
-30
-33
-29
-29
-28
-29
-26
-28
-25
-24
-27
-26
-24
-22
-21
-22
-20
-19
-16
-19
-13
-12
-12
-11
-10
-8
-6
-3
-2
-3
1
3
5
1
5
10
8
11
11
12
18
16
15
15
15
16
16
16
16
15
16
13
8
7
4
1
-1
-7
-11
-14
-18
-21
-25
-25
-28
-32
-35
-38
-39
-38
-40
-41
-40
-43
-39
-41
-40
-39
-41
-39
-39
-37
-36
-35
-37
-37
-32
-35
-34
-33
-33
-34
-31
-32
-35
-34
-33
-28
-30
-28
-30
-30
-28
-28
-29
-29
-29
-26
-24
-29
-27
-25
-25
-23
-23
-24
-23
-23
-21
-21
-22
-21
-22
-21
-21
-19
-20
-18
-19
-19
-15
-11
-12
-14
-14
-12
-13
-15
-16
-18
-17
-14
-13
-12
-11
-12
-7
-8
-7
-6
0
-2
2
4
1
-3
-6
-5
-6
-10
-9
-10
-8
-12
-10
-9
-9
-9
-11
-9
-13
-12
-10
-11
-17
-20
-22
-13
2
22
53
91
140
190
233
244
199
138
74
35
3
-17
-25
-29
-29
-33
-32
-29
-31
-30
-29
-27
-26
-27
-29
-26
-26
-23
-24
-21
-23
-21
-17
-17
-17
-16
-16
-12
-9
-9
-5
-2
-5
-3
-1
-2
8
2
8
9
9
11
15
13
13
18
16
15
19
17
20
17
20
16
17
16
17
15
11
8
4
0
-3
-7
-11
-17
-20
-23
-24
-30
-29
-31
-33
-32
-34
-34
-33
-37
-37
-37
-34
-33
-36
-31
-31
-32
-32
-32
-31
-29
-29
-28
-28
-27
-28
-28
-29
-27
-26
-25
-27
-26
-27
-24
-24
-23
-25
-23
-22
-24
-24
-23
-19
-22
-23
-25
-25
-24
-24
-20
-20
-19
-24
-21
-25
-23
-22
-20
-23
-21
-20
-17
-17
-20
-21
-21
-20
-17
-16
-17
-15
-15
-14
-16
-14
-14
-12
-14
-13
-14
-15
-14
-15
-13
-14
-13
-12
-13
-9
-7
-7
-10
-7
0
-1
-2
1
4
6
5
1
-1
-4
-6
-6
-7
-7
-9
-9
-6
-9
-8
-5
-7
-9
-7
-5
-5
-11
-17
-16
-17
-5
9
33
65
109
158
206
242
238
185
119
65
27
4
-17
-25
-27
-28
-29
-29
-31
-27
-31
-27
-27
-30
-27
-28
-24
-21
-25
-21
-22
-21
-18
-17
-14
-12
-14
-13
-10
-10
-9
-9
-9
-4
-4
0
3
4
2
3
5
5
6
7
9
7
11
11
13
15
16
13
20
19
17
19
16
13
11
10
11
8
1
0
-6
-14
-14
-16
-18
-25
-23
-29
-30
-32
-35
-35
-35
-34
-37
-35
-33
-32
-33
-30
-30
-30
-30
-27
-28
-28
-28
-28
-29
-27
-24
-26
-26
-24
-24
-26
-26
-25
-27
-26
-24
-25
-26
-26
-27
-27
-24
-25
-25
-26
-25
-24
-26
-27
-25
-25
-28
-27
-26
-24
-25
-23
-20
-24
-22
-21
-24
-21
-18
-18
-18
-20
-20
-17
-18
-17
-16
-12
-15
-14
-14
-12
-15
-13
-11
-13
-13
-9
-10
-9
-11
-12
-13
-10
-11
-8
-6
-9
-11
-8
-5
-6
-6
-4
-2
-2
0
6
3
3
3
1
0
-5
-3
-4
-8
-5
-4
-7
-4
-7
-5
-4
-4
-4
-6
-7
-8
-15
-14
-16
-11
8
29
57
93
141
191
232
244
204
142
80
33
-1
-12
-25
-27
-31
-34
-30
-30
-30
-28
-28
-29
-27
-26
-24
-19
-24
-23
-23
-22
-19
-16
-16
-18
-18
-13
-11
-10
-8
-7
-3
-6
-3
0
0
-5
1
0
4
2
6
6
5
9
9
12
11
11
14
13
16
15
15
15
15
14
13
13
9
7
3
2
-3
-8
-12
-15
-17
-23
-24
-25
-30
-30
-30
-34
-32
-34
-38
-36
-41
-36
-39
-36
-39
-35
-32
-33
-31
-32
-34
-29
-32
-28
-29
-27
-33
-30
-28
-31
-25
-27
-27
-29
-28
-28
-27
-28
-26
-26
-24
-24
-25
-28
-22
-26
-25
-25
-25
-25
-25
-23
-21
-23
-23
-25
-23
-22
-19
-18
-19
-21
-20
-19
-20
-18
-19
-20
-21
-18
-15
-18
-15
-16
-15
-17
-17
-17
-17
-17
-15
-15
-16
-17
-11
-13
-13
-13
-13
-9
-12
-12
-7
-8
-11
-8
-8
-6
-4
-5
0
-1
3
4
2
3
1
-5
-6
-6
-8
-6
-8
-6
-7
-4
-7
-9
-6
-8
-7
-7
-11
-10
-14
-18
-17
-5
13
38
73
111
162
210
242
234
178
113
62
25
-5
-17
-25
-29
-31
-29
-31
-31
-30
-28
-32
-28
-28
-26
-27
-29
-25
-20
-22
-19
-21
-19
-18
-16
-18
-14
-11
-12
-11
-9
-9
-5
-5
0
3
-2
3
4
5
6
7
8
11
10
13
14
13
13
16
12
13
17
14
13
15
12
10
9
7
4
1
-4
-7
-12
-12
-18
-18
-24
-24
-27
-28
-31
-33
-34
-33
-36
-34
-36
-37
-39
-34
-35
-36
-35
-33
-31
-33
-33
-29
-30
-28
-26
-30
-29
-30
-34
-32
-33
-32
-32
-28
-30
-30
-31
-31
-29
-29
-30
-28
-30
-24
-23
-28
-26
-26
-24
-25
-25
-23
-24
-25
-23
-23
-19
-21
-21
-20
-19
-22
-23
-21
-19
-19
-20
-17
-18
-17
-16
-14
-15
-16
-15
-16
-17
-18
-15
-16
-16
-16
-14
-14
-19
-16
-11
-17
-18
-15
-15
-17
-14
-13
-17
-12
-10
-12
-11
-12
-11
-8
-8
-4
-4
-6
-4
-7
-11
-10
-10
-11
-13
-13
-16
-16
-13
-15
-13
-10
-11
-9
-8
-11
-11
-14
-20
-21
-23
-17
1
24
53
95
143
197
244
253
210
143
78
35
3
-17
-28
-33
-36
-37
-37
-37
-33
-33
-33
-33
-30
-29
-28
-27
-24
-24
-25
-23
-20
-20
-17
-20
-17
-14
-16
-15
-13
-9
-11
-8
-5
-6
-2
-2
-2
1
2
3
4
6
5
9
8
12
12
15
16
17
17
17
17
16
20
15
13
12
12
8
9
5
2
-5
-10
-12
-16
-18
-21
-26
-25
-28
-29
-29
-32
-37
-36
-33
-36
-35
-36
-34
-33
-33
-33
-31
-31
-29
-28
-27
-26
-30
-26
-25
-27
-26
-27
-30
-26
-29
-28
-27
-28
-27
-27
-26
-29
-29
-29
-28
-29
-24
-25
-23
-23
-24
-21
-20
-23
-23
-20
-21
-23
-21
-21
-23
-21
-21
-20
-21
-19
-19
-18
-18
-19
-16
-18
-18
-17
-18
-18
-16
-17
-17
-17
-14
-18
-16
-14
-13
-16
-16
-13
-14
-13
-12
-11
-10
-11
-10
-8
-10
-10
-5
-5
-4
-6
-5
-8
-9
-9
-9
-14
-9
-6
-8
-6
-7
-9
-8
-7
-8
-8
-9
-12
-17
-18
-17
-12
9
30
64
106
154
206
252
256
205
133
70
25
-3
-19
-29
-32
-36
-31
-32
-30
-25
-27
-26
-26
-25
-24
-22
-20
-25
-20
-18
-15
-19
-12
-15
-12
-12
-12
-12
-7
-8
-6
-2
-3
0
1
3
5
4
9
10
8
10
13
13
13
20
17
16
19
19
20
20
21
21
21
23
24
21
20
14
11
5
4
-6
-8
-10
-17
-18
-23
-29
-28
-31
-34
-36
-39
-40
-41
-39
-38
-36
-38
-38
-39
-38
-36
-34
-35
-36
-35
-34
-33
-32
-33
-33
-33
-32
-30
-29
-28
-27
-28
-26
-27
-28
-29
-29
-27
-29
-26
-24
-27
-23
-27
-23
-23
-24
-23
-24
-23
-23
-23
-17
-21
-18
-18
-16
-18
-16
-16
-14
-15
-13
-11
-17
-12
-12
-13
-13
-10
-9
-11
-6
-10
-7
-9
-9
-6
-6
-3
2
1
6
4
4
-3
-8
-3
-5
-8
-5
-8
-7
-10
-6
-9
-5
-7
-6
-8
-9
-10
-13
-17
-20
-16
-9
13
34
68
121
161
218
258
248
192
119
60
15
-8
-19
-29
-33
-30
-28
-28
-28
-24
-26
-21
-24
-19
-22
-19
-19
-17
-16
-16
-16
-11
-10
-13
-11
-8
-6
-4
-5
-2
1
2
4
5
7
7
9
10
12
14
16
18
19
19
19
23
22
23
28
25
27
28
30
27
29
27
24
23
22
19
16
16
10
5
0
-6
-10
-12
-18
-22
-25
-26
-31
-31
-33
-35
-35
-37
-35
-37
-33
-35
-35
-33
-33
-31
-34
-31
-30
-25
-27
-26
-26
-23
-29
-25
-26
-26
-22
-23
-20
-22
-25
-21
-20
-21
-25
-25
-21
-26
-22
-25
-24
-23
-25
-23
-26
-21
-20
-22
-20
-22
-21
-20
-19
-20
-25
-20
-21
-20
-21
-19
-21
-16
-19
-17
-20
-19
-16
-16
-16
-17
-17
-15
-13
-12
-12
-11
-10
-9
-8
-7
-8
-3
-5
-9
-6
-9
-11
-13
-12
-13
-14
-11
-12
-13
-13
-12
-12
-11
-13
-13
-13
-12
-18
-22
-23
-17
-5
19
46
84
133
183
231
251
208
143
84
33
6
-13
-23
-29
-32
-31
-30
-29
-28
-27
-29
-27
-25
-27
-24
-23
-21
-23
-25
-19
-19
-16
-14
-13
-10
-12
-13
-10
-8
-7
-7
-5
-5
-2
2
4
6
3
6
7
7
11
12
15
14
16
16
17
18
18
19
19
22
20
19
19
15
14
14
12
8
5
0
-6
-12
-13
-18
-20
-22
-28
-29
-32
-36
-37
-41
-38
-42
-38
-37
-40
-37
-40
-39
-38
-36
-38
-35
-34
-31
-31
-31
-32
-31
-30
-30
-28
-30
-31
-33
-27
-29
-28
-26
-25
-26
-27
-26
-26
-26
-26
-27
-25
-27
-27
-26
-29
-22
-28
-31
-25
-27
-24
-20
-24
-24
-25
-24
-23
-25
-25
-24
-25
-23
-21
-24
-23
-22
-22
-22
-21
-22
-19
-21
-21
-21
-21
-18
-18
-15
-14
-13
-15
-13
-13
-12
-10
-9
-7
-4
-3
-3
0
-3
-7
-9
-8
-12
-10
-13
-12
-12
-12
-9
-10
-9
-9
-10
-7
-13
-13
-17
-21
-22
-20
-13
10
35
71
113
166
211
244
222
163
101
47
14
-12
-25
-31
-34
-35
-34
-31
-33
-33
-31
-28
-29
-27
-26
-28
-27
-27
-27
-24
-22
-22
-23
-19
-17
-17
-12
-15
-11
-11
-7
-8
-5
-2
-4
-5
-1
0
4
6
7
10
10
14
12
11
16
15
17
16
17
19
17
21
22
20
22
15
18
16
9
5
2
-3
-8
-10
-17
-21
-20
-22
-25
-28
-29
-29
-31
-30
-34
-31
-34
-33
-34
-33
-36
-32
-33
-37
-33
-29
-30
-31
-28
-29
-29
-28
-25
-30
-26
-25
-25
-26
-28
-23
-31
-28
-27
-33
-27
-29
-27
-27
-28
-24
-24
-27
-25
-27
-30
-25
-22
-25
-25
-25
-23
-22
-23
-20
-21
-23
-22
-21
-21
-25
-20
-20
-23
-21
-21
-20
-20
-18
-19
-16
-18
-17
-16
-16
-15
-16
-17
-17
-18
-17
-17
-16
-17
-14
-13
-10
-11
-10
-11
-6
-9
-5
-4
0
0
-1
-4
-2
-5
-9
-9
-9
-11
-11
-13
-11
-8
-10
-6
-10
-11
-7
-7
-11
-17
-18
-22
-20
-10
8
31
61
102
149
204
241
233
185
118
64
24
-3
-15
-23
-27
-27
-34
-28
-29
-28
-27
-27
-26
-25
-23
-25
-24
-21
-21
-24
-21
-17
-15
-15
-14
-11
-13
-10
-4
-9
-8
-6
-2
-5
-3
1
0
2
4
6
4
5
8
12
11
10
11
12
15
13
15
16
16
16
20
16
16
17
13
11
8
8
3
2
-7
-7
-13
-16
-21
-21
-24
-24
-29
-30
-31
-30
-32
-32
-32
-33
-30
-33
-32
-31
-31
-30
-33
-29
-31
-27
-27
-26
-28
-30
-26
-27
-28
-27
-27
-26
-26
-29
-29
-26
-27
-26
-25
-24
-23
-26
-24
-24
-24
-21
-24
-21
-22
-23
-21
-20
-20
-21
-21
-21
-18
-19
-18
-18
-21
-18
-18
-14
-18
-15
-15
-14
-17
-14
-14
-13
-12
-17
-14
-14
-14
-11
-11
-10
-11
-11
-10
-13
-9
-9
-9
-9
-7
-11
-9
-8
-11
-10
-13
-8
-8
-8
-11
-8
-9
-9
-8
-9
-11
-9
-9
-8
-11
-4
-5
-5
0
-3
1
3
4
2
4
3
-2
-4
-2
-5
-6
-5
-6
-4
-8
-7
-5
-6
-5
-9
-6
-10
-12
-18
-15
-12
3
24
55
94
140
192
233
246
207
141
84
40
7
-7
-19
-24
-26
-27
-27
-28
-27
-30
-28
-29
-29
-24
-28
-24
-24
-26
-22
-25
-19
-20
-19
-14
-18
-12
-13
-14
-9
-10
-9
-7
-1
-4
-2
1
5
4
5
5
7
8
7
8
12
12
16
11
14
9
17
15
13
16
16
15
15
13
12
10
8
3
2
1
-6
-9
-12
-14
-19
-20
-23
-26
-30
-33
-33
-35
-33
-33
-34
-31
-36
-36
-34
-36
-35
-34
-33
-31
-31
-32
-34
-35
-33
-32
-31
-31
-30
-30
-33
-29
-34
-29
-33
-29
-30
-31
-26
-29
-30
-28
-28
-29
-28
-29
-26
-25
-27
-27
-24
-23
-24
-26
-25
-23
-24
-24
-23
-24
-20
-22
-21
-22
-23
-23
-22
-19
-20
-19
-21
-21
-17
-19
-20
-21
-20
-19
-18
-21
-17
-19
-16
-16
-19
-17
-18
-16
-17
-16
-19
-12
-14
-16
-15
-15
-17
-12
-13
-13
-12
-8
-9
-7
-6
-7
-6
-7
-5
-4
-3
0
0
3
5
2
1
-3
-6
-6
-6
-6
-7
-4
-6
-5
-7
-10
-11
-8
-10
-12
-12
-18
-21
-24
-20
-6
12
43
86
123
180
231
256
225
160
93
42
11
-12
-27
-34
-36
-36
-34
-34
-36
-34
-31
-33
-32
-28
-29
-28
-29
-24
-23
-28
-21
-25
-21
-19
-21
-19
-16
-12
-14
-13
-12
-12
-8
-6
-3
-3
1
1
4
0
0
6
7
8
11
12
13
14
15
17
14
16
15
13
16
12
12
11
15
8
5
3
1
-6
-8
-13
-14
-18
-21
-24
-27
-30
-30
-34
-34
-39
-37
-36
-37
-37
-36
-34
-36
-36
-36
-34
-33
-32
-33
-32
-33
-34
-29
-32
-29
-31
-32
-30
-29
-30
-31
-32
-31
-29
-31
-32
-29
-29
-25
-29
-26
-29
-25
-27
-26
-26
-25
-23
-22
-25
-24
-24
-22
-21
-21
-21
-21
-19
-19
-16
-16
-19
-16
-15
-16
-14
-16
-17
-14
-18
-16
-15
-16
-15
-19
-15
-14
-10
-14
-13
-12
-13
-17
-15
-14
-13
-15
-8
-13
-9
-6
-10
-10
-6
-7
-5
-2
-3
2
3
4
4
1
-1
-2
-2
-3
-4
0
-5
-5
-6
-7
-5
-6
-6
-4
-5
2
-2
-7
-11
-17
-18
-11
8
34
62
103
151
207
253
262
214
144
80
31
4
-13
-25
-29
-28
-29
-28
-28
-29
-29
-26
-26
-24
-27
-26
-25
-21
-21
-19
-20
-15
-15
-8
-12
-11
-13
-7
-5
-2
0
-1
-1
2
5
5
6
7
8
7
11
11
10
16
15
17
15
20
19
20
18
21
22
22
23
22
19
23
18
21
13
14
6
4
-1
-5
-9
-12
-16
-20
-25
-23
-26
-29
-32
-32
-32
-34
-36
-37
-37
-32
-37
-36
-31
-29
-33
-32
-29
-31
-28
-29
-28
-28
-27
-25
-25
-27
-24
-25
-26
-22
-25
-24
-23
-27
-23
-24
-23
-24
-21
-23
-25
-23
-22
-21
-23
-21
-19
-20
-22
-23
-20
-21
-20
-21
-20
-16
-19
-19
-19
-20
-15
-15
-16
-16
-14
-13
-12
-12
-13
-10
-13
-13
-13
-12
-11
-12
-13
-9
-9
-10
-8
-6
-8
-4
-4
-5
-3
1
3
1
1
-3
-5
-3
-4
-8
-9
-11
-7
-9
-4
-4
-9
-5
-3
-9
-5
-7
-10
-15
-14
-12
0
14
40
76
118
170
224
254
238
177
110
56
16
-6
-21
-28
-27
-30
-27
-30
-32
-29
-29
-28
-28
-28
-26
-28
-22
-24
-23
-20
-16
-21
-18
-16
-15
-14
-10
-8
-11
-7
-4
-6
-3
-2
1
-1
2
2
6
6
9
10
10
10
15
13
17
18
16
19
19
19
18
21
19
20
19
17
14
12
9
9
-3
-1
-9
-15
-18
-20
-24
-26
-25
-31
-29
-34
-36
-36
-39
-37
-37
-37
-39
-38
-39
-39
-36
-37
-37
-33
-34
-33
-33
-33
-33
-31
-32
-31
-30
-31
-28
-28
-26
-28
-28
-25
-26
-26
-26
-24
-24
-29
-25
-24
-27
-25
-24
-22
-28
-22
-22
-22
-23
-20
-25
-18
-24
-25
-27
-21
-26
-25
-25
-21
-22
-21
-20
-19
-22
-17
-17
-15
-17
-14
-19
-18
-15
-16
-16
-17
-13
-13
-13
-17
-15
-17
-12
-12
-12
-6
-4
-6
-4
-5
-5
-7
-4
-10
-9
-13
-13
-15
-15
-15
-13
-16
-15
-13
-13
-10
-13
-16
-14
-18
-20
-21
-15
1
19
47
84
131
182
225
246
212
153
88
40
7
-13
-25
-23
-26
-28
-30
-31
-27
-26
-29
-31
-31
-28
-29
-24
-24
-27
-23
-23
-20
-22
-19
-18
-15
-15
-15
-11
-11
-9
-9
-8
-7
0
-4
0
-5
-2
3
1
6
5
8
12
12
11
16
16
15
18
19
18
22
22
20
18
18
16
13
12
7
5
0
-4
-9
-13
-15
-17
-20
-24
-26
-28
-32
-33
-35
-37
-37
-36
-37
-35
-37
-36
-34
-35
-35
-36
-36
-33
-33
-31
-28
-28
-32
-29
-29
-29
-28
-28
-30
-28
-27
-29
-28
-28
-29
-30
-30
-27
-29
-30
-26
-29
-29
-27
-26
-28
-28
-27
-24
-25
-24
-23
-25
-22
-25
-23
-23
-18
-22
-19
-18
-17
-18
-21
-21
-18
-19
-22
-19
-19
-17
-16
-15
-15
-13
-15
-13
-14
-15
-15
-15
-11
-10
-11
-9
-9
-7
-9
-7
-5
-1
3
0
2
-2
-4
-4
-6
-9
-13
-6
-13
-11
-8
-11
-10
-10
-10
-9
-11
-8
-13
-18
-20
-19
-11
6
24
51
96
133
186
232
245
208
145
83
42
14
-10
-22
-25
-24
-28
-28
-27
-27
-26
-29
-24
-24
-25
-25
-25
-25
-19
-22
-19
-20
-18
-21
-14
-12
-14
-12
-13
-8
-11
-7
-9
-5
-6
-2
2
0
1
3
6
5
6
7
10
11
13
14
13
17
15
18
15
17
13
16
15
19
12
8
9
8
2
-3
-6
-13
-18
-20
-21
-23
-27
-28
-34
-34
-37
-37
-37
-38
-43
-40
-40
-39
-41
-37
-36
-37
-38
-37
-36
-37
-36
-32
-37
-36
-32
-36
-38
-37
-34
-32
-35
-35
-31
-34
-35
-30
-30
-32
-30
-31
-30
-28
-27
-29
-28
-28
-29
-25
-25
-27
-24
-24
-23
-23
-23
-18
-21
-22
-21
-22
-20
-23
-22
-21
-21
-21
-18
-20
-20
-14
-18
-17
-14
-13
-15
-12
-12
-10
-11
-11
-13
-11
-10
-12
-11
-12
-9
-9
-6
-7
-8
-3
-10
-5
-4
-3
-2
1
5
3
1
2
1
-1
-5
-4
-7
-5
-6
-4
-6
-7
-5
-7
-5
-2
-4
-5
-4
-9
-15
-17
-15
-8
10
33
65
106
155
212
256
256
208
135
74
27
-1
-18
-24
-30
-32
-30
-29
-30
-30
-28
-30
-29
-25
-24
-27
-23
-23
-25
-20
-19
-19
-17
-13
-17
-15
-13
-13
-10
-9
-8
-7
-9
-2
-1
0
1
6
6
8
9
8
11
13
12
16
14
18
19
19
21
21
21
21
21
19
21
20
14
15
9
10
5
0
-4
-9
-10
-19
-21
-25
-27
-30
-34
-34
-38
-40
-40
-45
-42
-42
-44
-44
-45
-41
-45
-41
-42
-39
-39
-38
-36
-36
-35
-36
-34
-36
-37
-33
-33
-36
-32
-34
-30
-32
-34
-31
-37
-31
-33
-32
-29
-29
-29
-28
-24
-25
-29
-27
-33
-28
-26
-30
-24
-29
-28
-27
-25
-25
-25
-24
-27
-21
-22
-21
-27
-23
-19
-22
-20
-19
-21
-18
-19
-20
-17
-16
-20
-16
-15
-15
-18
-15
-17
-12
-11
-13
-9
-12
-9
-7
-3
0
1
1
1
-1
1
-5
-4
-6
-9
-6
-8
-8
-6
-7
-10
-6
-7
-11
-5
-6
-6
-10
-10
-14
-21
-20
-14
2
24
50
91
139
194
245
263
226
154
88
37
4
-15
-26
-34
-32
-34
-30
-28
-27
-29
-27
-29
-26
-25
-22
-20
-21
-21
-17
-17
-14
-13
-13
-9
-13
-7
-9
-5
-5
0
-2
3
2
3
9
12
10
13
11
14
16
18
15
18
23
22
24
26
24
28
27
28
27
27
28
24
26
25
24
21
15
12
8
4
2
-6
-11
-12
-17
-21
-24
-25
-30
-32
-33
-34
-36
-35
-34
-37
-36
-38
-37
-35
-33
-31
-34
-35
-29
-29
-28
-29
-28
-26
-29
-28
-27
-29
-27
-26
-29
-29
-28
-25
-27
-25
-26
-25
-27
-27
-27
-26
-28
-28
-24
-23
-25
-22
-21
-20
-22
-20
-20
-23
-17
-21
-18
-18
-21
-20
-20
-22
-16
-18
-19
-19
-16
-16
-19
-15
-16
-15
-18
-17
-14
-17
-10
-14
-13
-12
-8
-10
-12
-6
-3
-6
-5
-6
-2
-5
-2
1
-1
1
-1
-1
-4
-5
-7
-4
-10
-7
-8
-10
-8
-11
-9
-11
-8
-8
-7
-11
-13
-17
-18
-20
-18
-4
14
43
79
125
179
228
256
230
166
95
47
9
-11
-22
-31
-30
-28
-31
-28
-31
-31
-32
-31
-29
-28
-28
-24
-22
-21
-23
-23
-21
-21
-20
-16
-16
-18
-17
-13
-13
-13
-11
-8
-8
-7
-5
-5
-1
1
5
4
6
6
9
10
13
15
14
16
17
19
17
19
22
21
21
19
19
18
17
13
9
7
3
2
-3
-9
-13
-16
-18
-22
-25
-29
-31
-31
-33
-34
-37
-37
-32
-36
-38
-37
-38
-38
-35
-34
-31
-33
-34
-34
-32
-33
-34
-33
-34
-32
-29
-33
-30
-32
-29
-29
-26
-29
-28
-26
-26
-25
-26
-22
-27
-27
-23
-24
-29
-22
-23
-27
-27
-24
-22
-21
-23
-22
-20
-23
-24
-22
-21
-21
-21
-23
-19
-21
-21
-18
-19
-17
-20
-18
-14
-16
-14
-14
-13
-13
-14
-13
-11
-13
-12
-13
-12
-17
-13
-16
-13
-10
-12
-10
-9
-7
-7
-4
-4
-1
1
4
4
4
-1
-4
-5
-5
-8
-7
-7
-7
-10
-6
-9
-6
-7
-6
-8
-5
-8
-12
-14
-18
-17
-13
-4
15
45
77
119
170
222
249
227
171
107
54
17
-5
-18
-25
-29
-31
-28
-32
-30
-31
-28
-28
-30
-29
-28
-26
-24
-26
-26
-22
-22
-21
-18
-19
-15
-17
-15
-13
-13
-13
-15
-9
-8
-10
-6
-5
-6
-3
0
3
5
6
8
7
14
12
14
11
16
18
17
16
18
16
15
21
17
14
11
12
10
7
2
-4
-9
-13
-18
-19
-23
-26
-28
-30
-32
-35
-35
-36
-36
-41
-37
-38
-39
-39
-35
-41
-38
-35
-36
-37
-34
-34
-33
-33
-32
-33
-30
-33
-29
-28
-31
-31
-30
-29
-27
-30
-30
-26
-29
-24
-27
-28
-29
-27
-24
-30
-28
-25
-25
-24
-29
-25
-25
-25
-24
-24
-21
-23
-21
-24
-23
-20
-22
-20
-21
-18
-18
-18
-18
-21
-16
-19
-15
-16
-16
-13
-15
-15
-14
-18
-17
-11
-13
-15
-14
-14
-14
-12
-11
-12
-12
-12
-13
-14
-8
-8
-11
-9
-8
-6
-7
-4
-6
-3
1
2
3
2
-1
0
-5
-9
-6
-6
-9
-8
-9
-9
-11
-8
-8
-7
-7
-5
-10
-9
-17
-20
-19
-14
-2
19
50
84
132
183
227
245
219
146
93
44
16
-10
-20
-26
-28
-30
-28
-31
-27
-31
-29
-27
-31
-29
-28
-30
-27
-29
-25
-26
-23
-21
-23
-23
-17
-17
-13
-14
-16
-12
-10
-11
-8
-6
-7
-4
-4
-5
0
-3
3
4
3
5
8
7
11
12
12
15
14
16
14
16
16
11
12
13
10
8
8
4
0
-6
-7
-14
-15
-19
-21
-28
-27
-29
-30
-35
-37
-37
-37
-38
-41
-38
-42
-41
-38
-40
-42
-38
-39
-37
-35
-35
-34
-34
-35
-31
-31
-32
-31
-27
-31
-26
-30
-29
-25
-29
-30
-29
-26
-24
-26
-27
-26
-25
-23
-24
-24
-24
-23
-21
-23
-19
-22
-22
-21
-21
-21
-22
-23
-20
-20
-23
-24
-25
-18
-21
-20
-18
-16
-19
-19
-19
-17
-17
-17
-19
-16
-15
-14
-17
-17
-13
-9
-12
-15
-13
-11
-10
-10
-12
-10
-13
-12
-10
-11
-4
-9
-11
-9
-6
-4
-4
-2
-1
0
4
4
-1
-3
1
-5
-9
-6
-7
-6
-7
-8
-8
-7
-5
-4
-7
-5
-7
-9
-14
-20
-19
-20
-14
5
27
62
104
151
210
251
250
201
127
67
24
-3
-20
-26
-31
-32
-35
-33
-35
-28
-28
-30
-31
-29
-30
-26
-25
-24
-23
-22
-16
-19
-19
-16
-15
-15
-14
-11
-9
-9
-5
-7
-4
-2
0
4
6
8
9
9
14
11
13
18
13
18
18
20
19
22
23
22
21
23
24
19
22
19
20
19
15
15
14
4
3
-5
-7
-11
-19
-19
-19
-29
-27
-28
-33
-31
-35
-36
-32
-41
-37
-37
-35
-36
-37
-33
-30
-35
-33
-33
-33
-31
-30
-33
-33
-29
-29
-29
-28
-30
-33
-30
-31
-35
-32
-30
-33
-31
-29
-31
-29
-29
-28
-26
-24
-24
-24
-25
-25
-24
-22
-22
-22
-25
-19
-20
-19
-22
-23
-25
-22
-19
-21
-24
-20
-22
-21
-16
-17
-17
-20
-17
-20
-18
-19
-18
-16
-14
-16
-14
-16
-16
-12
-15
-12
-10
-8
-11
-7
-5
-4
-7
-5
-5
-2
6
2
3
0
-1
0
-4
-3
-2
-7
-7
-8
-9
-5
-5
-9
-5
-9
-3
-5
-2
-5
-10
-13
-13
-12
-2
20
48
82
127
179
233
264
240
175
108
52
14
-8
-16
-29
-28
-28
-29
-28
-27
-25
-22
-24
-22
-23
-24
-24
-20
-20
-23
-22
-16
-20
-16
-15
-13
-11
-10
-8
-7
-5
0
-4
-2
1
4
5
2
4
6
6
9
10
12
12
15
17
16
19
20
21
24
23
26
22
22
25
21
24
23
17
16
12
7
6
-2
-1
-7
-14
-13
-18
-21
-27
-28
-28
-31
-33
-35
-36
-32
-36
-36
-32
-35
-28
-33
-30
-31
-30
-30
-28
-28
-24
-24
-29
-25
-22
-26
-28
-24
-22
-22
-25
-22
-21
-22
-25
-23
-26
-27
-24
-26
-28
-23
-24
-22
-25
-23
-24
-23
-24
-24
-22
-24
-23
-23
-24
-23
-20
-18
-21
-17
-20
-19
-19
-17
-16
-18
-15
-17
-17
-13
-12
-13
-12
-13
-11
-13
-13
-13
-11
-12
-13
-8
-10
-9
-11
-7
-8
-4
-5
-5
1
-3
2
0
-5
-6
-5
-9
-6
-8
-10
-13
-10
-10
-13
-8
-13
-11
-10
-12
-9
-12
-18
-22
-23
-14
-3
19
47
86
134
185
229
251
213
150
87
35
6
-10
-27
-28
-29
-32
-32
-34
-32
-33
-32
-30
-32
-32
-28
-31
-27
-27
-29
-26
-27
-24
-25
-21
-19
-16
-17
-14
-14
-10
-12
-13
-10
-7
-8
-4
-3
-3
2
4
2
7
5
10
9
9
12
14
14
13
12
17
14
15
18
13
14
12
12
9
6
5
-3
-6
-8
-14
-16
-20
-25
-29
-27
-34
-34
-37
-35
-40
-40
-41
-37
-40
-41
-39
-42
-36
-39
-37
-37
-34
-33
-32
-33
-32
-32
-29
-30
-33
-30
-29
-26
-26
-29
-26
-24
-28
-25
-25
-27
-28
-26
-29
-28
-29
-29
-29
-26
-25
-24
-24
-22
-24
-25
-23
-24
-22
-21
-22
-21
-22
-21
-20
-20
-19
-18
-20
-20
-21
-19
-18
-20
-16
-18
-16
-15
-17
-17
-17
-17
-17
-14
-12
-13
-15
-13
-14
-12
-13
-12
-8
-9
-9
-5
-5
-3
-3
-6
-6
-8
-10
-14
-15
-12
-13
-12
-14
-12
-11
-10
-10
-13
-11
-10
-16
-23
-24
-21
-15
-5
22
47
87
134
184
228
245
207
145
88
39
7
-10
-21
-24
-30
-32
-34
-35
-31
-31
-33
-30
-35
-31
-29
-28
-29
-29
-24
-20
-21
-21
-16
-18
-17
-16
-12
-13
-12
-11
-9
-9
-8
-2
-7
-5
-3
-5
3
4
3
4
4
9
9
10
10
13
13
15
17
15
17
15
15
15
15
14
15
7
7
6
-1
-4
-7
-12
-15
-15
-20
-19
-24
-27
-31
-29
-33
-31
-33
-34
-37
-37
-36
-36
-34
-37
-37
-38
-36
-32
-36
-32
-32
-30
-32
-30
-30
-28
-28
-27
-28
-31
-31
-31
-30
-27
-28
-28
-29
-30
-28
-26
-29
-26
-27
-28
-26
-27
-27
-27
-25
-26
-25
-25
-25
-23
-22
-22
-22
-24
-22
-21
-21
-21
-19
-17
-20
-20
-17
-17
-18
-17
-17
-19
-16
-15
-14
-15
-15
-15
-16
-15
-14
-12
-12
-12
-10
-8
-10
-7
-5
-5
-4
-2
-4
-6
-6
-6
-9
-9
-12
-10
-12
-10
-11
-12
-15
-8
-13
-9
-11
-14
-16
-20
-23
-16
-6
13
37
75
118
168
223
256
243
178
114
53
17
-9
-23
-32
-34
-33
-35
-35
-31
-32
-35
-28
-37
-34
-27
-30
-27
-22
-25
-25
-23
-21
-20
-23
-15
-15
-14
-12
-11
-7
-5
-7
-7
-7
-2
1
2
4
1
3
7
9
9
11
13
14
13
14
17
17
19
19
18
17
22
20
17
17
15
13
12
8
7
-4
-3
-10
-11
-13
-14
-16
-21
-24
-27
-32
-32
-35
-36
-37
-37
-38
-36
-38
-37
-35
-34
-37
-35
-34
-32
-29
-32
-33
-33
-28
-29
-34
-31
-26
-29
-29
-28
-31
-30
-29
-28
-31
-28
-27
-31
-29
-29
-28
-26
-27
-27
-30
-25
-26
-25
-20
-25
-25
-25
-23
-22
-20
-21
-21
-21
-20
-20
-21
-20
-18
-17
-16
-14
-16
-21
-17
-14
-14
-14
-13
-14
-13
-12
-9
-9
-7
-13
-7
-5
-4
0
-1
-2
1
-5
-5
-6
-9
-11
-14
-13
-13
-12
-10
-10
-9
-10
-10
-10
-10
-10
-11
-11
-18
-20
-21
-15
2
19
49
89
137
197
240
262
224
162
95
43
11
-11
-24
-29
-29
-31
-30
-30
-30
-26
-26
-24
-24
-27
-23
-22
-21
-23
-17
-18
-17
-16
-15
-12
-11
-8
-8
-8
-6
-3
1
-2
-1
3
1
4
4
6
10
11
12
12
11
11
17
16
18
23
20
23
22
21
24
24
21
23
22
21
19
19
17
11
7
1
-2
-3
-12
-10
-15
-20
-22
-24
-23
-24
-28
-30
-32
-31
-32
-30
-34
-30
-30
-30
-30
-30
-27
-28
-29
-24
-24
-24
-27
-26
-28
-22
-25
-22
-22
-21
-23
-25
-22
-24
-22
-24
-22
-21
-21
-19
-21
-19
-20
-23
-20
-20
-21
-20
-19
-19
-18
-18
-19
-18
-18
-17
-15
-13
-12
-15
-15
-15
-14
-11
-13
-12
-15
-13
-8
-13
-13
-10
-12
-12
-11
-12
-11
-9
-11
-7
-5
-9
-6
-2
-3
-1
1
4
3
3
-1
-3
-1
-4
-4
-5
-9
-7
-9
-5
-10
-7
-13
-6
-8
-9
-9
-10
-15
-15
-18
-21
-15
0
19
48
88
130
181
231
250
218
149
85
42
8
-12
-24
-27
-32
-33
-34
-33
-32
-32
-31
-31
-29
-28
-26
-26
-30
-27
-23
-24
-23
-18
-18
-17
-18
-15
-14
-13
-11
-10
-8
-7
-6
0
-2
0
0
7
2
5
7
9
9
12
12
12
12
15
15
18
17
14
19
17
15
18
14
15
13
8
9
3
0
1
-9
-8
-17
-17
-25
-22
-29
-28
-29
-36
-33
-35
-38
-36
-38
-39
-39
-40
-36
-38
-38
-39
-37
-34
-35
-33
-33
-35
-33
-32
-37
-34
-33
-35
-33
-33
-34
-33
-32
-28
-29
-33
-29
-31
-28
-30
-26
-33
-30
-29
-30
-28
-28
-28
-27
-25
-29
-26
-28
-26
-25
-28
-27
-22
-25
-25
-23
-21
-21
-20
-22
-18
-19
-15
-19
-17
-16
-16
-12
-16
-14
-16
-16
-14
-14
-9
-10
-13
-11
-11
-7
-7
-6
-5
0
0
-5
-5
-6
-8
-10
-8
-12
-12
-10
-9
-10
-10
-13
-10
-10
-9
-11
-11
-16
-18
-21
-22
-16
-5
15
43
78
122
171
218
246
214
155
91
45
12
-11
-25
-29
-33
-31
-34
-36
-33
-33
-32
-29
-31
-31
-31
-24
-29
-24
-28
-24
-24
-23
-22
-19
-17
-21
-15
-17
-14
-12
-9
-10
-6
-8
-5
-3
-1
-1
5
2
-2
8
6
7
9
8
15
15
11
17
11
17
14
16
14
14
13
12
9
9
6
6
0
-2
-7
-11
-13
-18
-21
-24
-27
-29
-29
-35
-34
-35
-36
-32
-38
-33
-36
-38
-39
-34
-36
-33
-34
-31
-32
-29
-29
-33
-28
-32
-29
-31
-28
-30
-31
-29
-26
-29
-28
-26
-27
-29
-27
-28
-26
-29
-26
-29
-26
-26
-26
-25
-25
-24
-23
-24
-22
-22
-21
-20
-19
-14
-20
-19
-19
-19
-21
-19
-17
-18
-16
-14
-14
-14
-10
-13
-13
-11
-8
-11
-13
-11
-12
-12
-12
-13
-12
-8
-9
-7
-8
-7
-11
-7
-5
-4
-2
2
0
3
1
-5
-5
-8
-8
-9
-11
-11
-11
-13
-9
-13
-8
-12
-9
-13
-7
-11
-10
-16
-20
-22
-17
-8
14
37
74
117
167
219
247
227
170
105
52
13
-8
-26
-33
-32
-34
-32
-36
-35
-35
-34
-33
-36
-29
-29
-30
-29
-27
-28
-26
-27
-25
-26
-19
-22
-20
-19
-18
-16
-16
-13
-10
-10
-9
-8
-5
-2
-5
-2
-2
-2
2
6
4
9
9
12
12
12
14
12
13
14
14
13
12
12
9
9
9
7
7
1
-5
-5
-9
-10
-14
-17
-21
-23
-27
-29
-32
-32
-34
-40
-38
-41
-38
-35
-36
-39
-36
-37
-37
-34
-32
-32
-35
-33
-32
-30
-35
-29
-32
-33
-33
-29
-31
-30
-29
-27
-27
-31
-29
-29
-26
-27
-23
-23
-27
-26
-25
-28
-27
-26
-24
-25
-23
-24
-22
-21
-20
-21
-20
-21
-21
-23
-21
-21
-19
-17
-18
-19
-16
-17
-14
-13
-17
-17
-15
-17
-12
-13
-12
-10
-8
-10
-11
-10
-8
-10
-8
-6
-8
-6
-5
-4
0
2
3
1
0
2
-3
-5
-8
-10
-10
-11
-11
-10
-9
-9
-10
-9
-7
-8
-12
-11
-14
-19
-19
-19
-7
12
39
75
117
168
222
257
246
183
111
56
16
-10
-23
-28
-32
-34
-31
-29
-29
-27
-28
-27
-26
-28
-26
-25
-22
-23
-19
-17
-19
-14
-13
-10
-11
-12
-10
-10
-7
-6
-5
-2
0
0
4
6
3
2
6
7
8
12
14
11
14
13
16
13
15
17
19
21
15
19
18
19
18
16
17
16
11
6
6
1
-5
-10
-10
-18
-16
-17
-19
-23
-26
-26
-32
-33
-31
-34
-37
-35
-32
-32
-32
-29
-31
-32
-28
-29
-29
-30
-29
-27
-25
-27
-26
-24
-29
-25
-29
-27
-29
-28
-24
-29
-27
-25
-22
-22
-25
-23
-24
-24
-22
-23
-22
-18
-18
-19
-19
-20
-21
-18
-19
-19
-19
-20
-19
-18
-19
-21
-18
-17
-21
-17
-16
-14
-14
-14
-16
-14
-12
-14
-12
-13
-15
-15
-9
-7
-11
-9
-7
-3
-7
-4
0
0
2
-2
-2
-4
-4
-7
-9
-8
-8
-10
-13
-8
-7
-10
-8
-7
-7
-7
-9
-8
-13
-17
-21
-21
-11
1
26
58
96
144
197
243
252
208
139
80
31
1
-14
-24
-31
-27
-30
-29
-30
-28
-28
-29
-31
-26
-24
-25
-25
-25
-20
-21
-16
-20
-16
-15
-13
-15
-15
-10
-13
-11
-7
-5
-6
-4
-3
0
2
3
1
6
7
9
7
10
14
14
12
19
18
19
21
24
21
20
23
20
22
16
18
18
15
10
6
8
-5
-5
-13
-15
-19
-22
-26
-27
-30
-30
-36
-36
-36
-38
-38
-40
-38
-38
-37
-36
-33
-35
-37
-33
-31
-30
-30
-31
-33
-31
-29
-26
-27
-29
-27
-28
-28
-27
-27
-26
-25
-27
-25
-28
-29
-27
-27
-24
-30
-27
-28
-24
-29
-26
-27
-23
-22
-21
-21
-19
-19
-18
-20
-18
-19
-19
-16
-16
-20
-21
-16
-19
-16
-20
-15
-20
-17
-18
-17
-17
-16
-10
-13
-10
-13
-10
-10
-4
-7
-4
-4
-5
0
-3
0
-6
-6
-11
-9
-12
-12
-12
-9
-13
-14
-12
-13
-9
-10
-6
-12
-10
-18
-21
-24
-22
-7
13
39
76
120
172
218
246
220
162
96
46
14
-13
-21
-31
-30
-30
-29
-30
-29
-31
-31
-29
-32
-33
-29
-29
-29
-28
-27
-25
-27
-22
-22
-19
-19
-18
-15
-17
-14
-14
-11
-8
-8
-7
-5
-6
-2
0
1
1
2
5
6
7
10
6
9
11
12
11
14
12
14
11
16
15
16
14
12
11
9
3
0
-7
-12
-14
-17
-21
-22
-29
-29
-31
-32
-36
-40
-41
-40
-41
-42
-43
-39
-38
-37
-36
-37
-34
-32
-32
-32
-33
-32
-31
-29
-31
-28
-26
-30
-30
-28
-30
-26
-25
-25
-26
-28
-29
-26
-25
-26
-27
-26
-26
-26
-25
-26
-28
-25
-27
-26
-26
-25
-23
-24
-24
-21
-22
-21
-22
-23
-22
-21
-20
-18
-18
-20
-20
-19
-16
-17
-16
-16
-16
-16
-16
-15
-14
-14
-13
-8
-8
-10
-9
-8
-7
-3
-3
-1
-7
-7
-8
-11
-12
-12
-9
-13
-12
-10
-10
-17
-13
-10
-12
-10
-16
-17
-21
-25
-26
-23
-10
9
35
73
119
166
213
246
218
159
87
41
10
-12
-29
-30
-34
-37
-32
-35
-35
-33
-32
-33
-32
-29
-26
-31
-25
-26
-18
-24
-21
-22
-22
-18
-20
-16
-19
-14
-12
-13
-11
-11
-11
-10
-7
-7
-3
0
-2
4
4
3
5
9
10
10
12
12
15
16
13
18
15
17
17
16
13
12
11
9
8
7
3
0
-7
-7
-13
-15
-19
-24
-26
-31
-30
-33
-34
-34
-39
-37
-37
-36
-39
-37
-38
-34
-37
-36
-36
-33
-37
-33
-34
-31
-30
-31
-30
-27
-30
-28
-32
-32
-30
-29
-28
-30
-28
-32
-30
-29
-30
-29
-30
-26
-26
-25
-26
-24
-25
-23
-23
-23
-23
-18
-19
-18
-17
-22
-17
-19
-19
-18
-17
-17
-20
-21
-16
-18
-18
-17
-16
-18
-18
-17
-17
-15
-12
-11
-9
-9
-9
-9
-9
-6
-7
-4
-4
1
-2
-2
0
-5
-4
-10
-8
-7
-12
-13
-11
-13
-9
-10
-10
-9
-11
-10
-11
-8
-16
-20
-22
-18
-10
10
34
68
114
161
219
260
249
190
119
62
19
-9
-23
-33
-34
-37
-35
-32
-32
-33
-30
-27
-29
-30
-29
-27
-27
-23
-24
-21
-20
-20
-19
-19
-14
-17
-15
-13
-8
-7
-9
-6
-7
-6
-4
-3
-1
2
3
3
9
9
12
13
13
15
15
18
19
20
21
17
22
19
20
21
20
17
18
15
15
10
10
8
1
-2
-7
-12
-15
-16
-22
-27
-25
-28
-28
-33
-34
-36
-41
-34
-35
-35
-33
-35
-34
-35
-32
-33
-31
-30
-31
-33
-30
-24
-29
-28
-27
-25
-27
-25
-28
-28
-27
-27
-26
-27
-27
-26
-25
-24
-26
-23
-23
-23
-21
-25
-22
-22
-20
-20
-20
-19
-21
-19
-15
-18
-19
-17
-19
-17
-17
-19
-15
-16
-20
-15
-17
-15
-12
-15
-10
-15
-11
-11
-13
-10
-7
-9
-8
-8
-7
0
-5
-1
1
1
1
0
0
-3
-6
-4
-6
-8
-4
-8
-5
-2
-9
-8
-4
-4
-5
-4
-9
-9
-17
-21
-14
-9
9
34
67
111
162
216
254
249
196
121
63
22
-8
-19
-31
-32
-31
-35
-32
-32
-30
-30
-28
-27
-29
-30
-29
-29
-25
-23
-19
-20
-19
-17
-15
-12
-12
-10
-11
-8
-6
-6
-3
-6
2
2
2
5
4
5
6
7
10
9
12
10
15
16
17
20
22
22
22
24
23
23
21
23
15
19
12
14
8
6
-2
-5
-8
-14
-17
-20
-21
-24
-29
-30
-34
-36
-38
-36
-38
-37
-41
-38
-37
-36
-36
-34
-37
-33
-31
-29
-29
-28
-33
-31
-31
-28
-27
-28
-29
-27
-25
-28
-25
-27
-29
-30
-27
-28
-23
-27
-24
-25
-26
-23
-24
-20
-22
-22
-22
-25
-26
-24
-27
-25
-24
-25
-21
-21
-20
-21
-17
-18
-16
-19
-16
-16
-16
-18
-19
-14
-16
-16
-17
-14
-17
-16
-14
-17
-16
-13
-13
-10
-8
-10
-9
-6
-6
-7
-5
0
3
1
2
0
-3
-5
-9
-6
-9
-11
-8
-7
-9
-8
-9
-8
-7
-9
-8
-12
-12
-16
-18
-18
-13
-3
12
37
75
119
169
223
253
231
173
107
56
19
-4
-16
-25
-24
-30
-29
-31
-30
-26
-26
-29
-28
-29
-29
-25
-23
-22
-20
-23
-21
-19
-20
-15
-18
-15
-10
-11
-10
-9
-8
-6
-3
-1
2
1
6
3
8
3
5
5
12
11
12
15
16
16
16
19
17
19
20
19
20
21
17
19
16
16
14
8
3
-1
-6
-10
-13
-14
-18
-24
-26
-29
-31
-32
-35
-36
-37
-39
-38
-37
-37
-35
-33
-32
-33
-32
-32
-33
-35
-31
-32
-31
-32
-31
-31
-29
-32
-30
-31
-28
-32
-29
-32
-29
-28
-30
-27
-29
-24
-28
-29
-28
-31
-29
-31
-32
-31
-32
-33
-30
-30
-29
-26
-24
-29
-26
-27
-24
-28
-27
-24
-22
-23
-23
-23
-23
-25
-25
-25
-21
-19
-22
-22
-22
-23
-20
-18
-19
-21
-16
-17
-15
-14
-16
-15
-14
-12
-12
-13
-14
-12
-9
-10
-6
-2
-3
-5
-3
-5
-4
-8
-8
-12
-10
-10
-12
-12
-13
-9
-8
-7
-9
-7
-7
-6
-13
-15
-19
-18
-16
-6
13
39
71
114
163
213
247
236
180
113
60
22
-1
-20
-29
-31
-32
-30
-29
-29
-29
-28
-28
-28
-29
-27
-27
-26
-25
-20
-20
-19
-20
-16
-14
-14
-10
-13
-10
-11
-9
-5
-6
-6
-3
1
0
0
2
3
7
4
11
9
10
14
17
11
13
14
16
18
18
16
19
20
18
17
18
16
16
13
10
8
1
-3
-3
-8
-14
-15
-18
-23
-23
-26
-28
-33
-33
-35
-34
-32
-35
-35
-37
-34
-37
-36
-32
-32
-35
-33
-29
-28
-30
-29
-28
-24
-28
-27
-26
-26
-24
-25
-24
-22
-21
-23
-22
-24
-20
-21
-23
-22
-22
-23
-21
-22
-22
-16
-20
-21
-22
-17
-21
-18
-17
-16
-17
-18
-19
-18
-17
-12
-14
-14
-17
-16
-14
-14
-14
-12
-16
-14
-14
-14
-17
-15
-20
-14
-17
-17
-15
-14
-13
-14
-12
-14
-13
-15
-16
-15
-15
-15
-14
-13
-12
-14
-12
-13
-9
-9
-5
-6
-5
-5
-2
-5
-5
-7
-7
-11
-9
-10
-14
-8
-16
-14
-14
-13
-16
-15
-14
-11
-15
-16
-23
-25
-23
-13
5
28
64
102
153
206
242
238
186
119
60
22
-2
-16
-29
-36
-37
-35
-36
-39
-34
-38
-36
-36
-33
-33
-32
-29
-30
-29
-29
-29
-22
-26
-22
-22
-20
-20
-19
-17
-15
-15
-13
-13
-10
-9
-7
-7
-6
-5
0
-5
-1
1
2
5
5
10
8
11
11
14
11
13
14
14
14
16
11
11
14
8
9
5
3
-3
-9
-10
-14
-18
-24
-24
-29
-29
-33
-33
-34
-37
-41
-40
-39
-38
-38
-39
-39
-37
-36
-35
-32
-34
-35
-32
-33
-32
-32
-35
-29
-31
-32
-33
-29
-29
-33
-30
-30
-33
-32
-30
-31
-27
-29
-28
-31
-32
-30
-30
-27
-29
-27
-29
-27
-27
-22
-27
-26
-24
-27
-23
-22
-25
-24
-24
-22
-23
-20
-18
-23
-21
-16
-19
-22
-21
-18
-16
-20
-20
-15
-17
-17
-15
-17
-13
-13
-16
-15
-16
-17
-13
-14
-12
-11
-13
-8
-12
-8
-8
-8
-6
-6
-4
-2
1
0
2
2
-1
0
-3
-11
-6
-6
-4
-7
-7
-6
-8
-10
-6
-7
-6
-8
-7
-12
-15
-19
-22
-20
-11
9
30
64
107
157
216
260
256
200
127
67
27
-7
-22
-29
-36
-31
-35
-32
-28
-27
-28
-24
-25
-26
-26
-25
-24
-25
-24
-21
-16
-16
-15
-14
-13
-13
-11
-10
-7
-9
-6
-7
-2
1
-2
2
3
4
8
9
11
11
12
14
15
16
17
18
20
22
23
21
23
24
25
28
24
23
23
20
18
16
11
9
6
3
-4
-8
-14
-13
-19
-22
-26
-26
-29
-31
-33
-32
-34
-32
-30
-32
-33
-35
-31
-30
-31
-26
-28
-30
-27
-29
-26
-24
-26
-24
-24
-24
-23
-22
-21
-22
-23
-24
-23
-25
-20
-25
-23
-22
-22
-22
-21
-21
-20
-23
-20
-22
-21
-20
-20
-18
-19
-17
-17
-18
-16
-15
-21
-15
-16
-17
-19
-15
-16
-15
-15
-14
-16
-12
-14
-13
-15
-15
-13
-12
-14
-11
-13
-13
-12
-11
-8
-10
-8
-10
-10
-9
-7
-4
-5
0
2
2
4
5
-1
-5
-2
-4
-7
-5
-8
-8
-13
-7
-7
-7
-8
-6
-6
-6
-8
-13
-12
-18
-22
-14
-3
19
48
81
129
184
232
256
224
159
93
44
10
-10
-22
-30
-31
-31
-29
-30
-28
-26
-28
-29
-26
-23
-25
-25
-23
-20
-22
-21
-18
-18
-13
-15
-15
-13
-13
-11
-8
-8
-6
-8
-3
-3
2
-1
1
2
1
4
7
7
9
11
14
16
14
16
17
15
15
20
19
22
19
20
19
18
13
12
8
3
1
-4
-4
-11
-14
-19
-22
-23
-25
-29
-32
-36
-37
-41
-40
-41
-42
-40
-45
-44
-40
-41
-39
-38
-38
-37
-35
-36
-36
-32
-32
-32
-33
-30
-33
-34
-30
-31
-31
-29
-26
-29
-28
-29
-26
-26
-31
-28
-28
-26
-25
-29
-27
-25
-24
-26
-24
-26
-23
-24
-21
-25
-24
-25
-23
-24
-20
-23
-21
-20
-21
-21
-16
-20
-16
-20
-16
-17
-18
-19
-17
-17
-19
-16
-18
-16
-15
-17
-16
-20
-14
-14
-13
-14
-13
-13
-13
-12
-10
-9
-6
-2
-4
1
-5
-6
-5
-8
-9
-11
-10
-8
-12
-12
-9
-9
-7
-9
-10
-10
-12
-8
-15
-18
-24
-24
-17
3
23
51
95
140
197
234
242
199
133
73
28
3
-15
-22
-25
-31
-33
-31
-28
-26
-27
-29
-26
-29
-29
-30
-23
-22
-24
-21
-25
-21
-19
-16
-15
-15
-12
-10
-11
-9
-6
-6
-4
-5
-2
-2
-2
2
2
3
3
8
8
10
15
14
16
18
17
20
20
17
22
20
20
22
21
21
17
15
14
14
12
4
2
0
-5
-12
-16
-19
-18
-25
-25
-27
-32
-34
-37
-36
-37
-37
-38
-35
-36
-32
-35
-37
-37
-32
-37
-32
-34
-31
-32
-27
-27
-29
-26
-28
-27
-28
-27
-26
-27
-27
-26
-29
-27
-28
-24
-27
-26
-28
-27
-23
-25
-24
-23
-20
-23
-23
-24
-23
-22
-23
-25
-21
-22
-22
-22
-21
-20
-17
-18
-21
-20
-19
-18
-18
-17
-16
-21
-17
-19
-17
-16
-14
-13
-14
-16
-16
-13
-12
-10
-12
-10
-9
-7
-8
-6
-4
-2
-1
2
0
2
0
-4
-6
-5
-7
-9
-10
-11
-10
-11
-10
-12
-10
-10
-10
-10
-10
-15
-16
-23
-23
-22
-16
2
23
55
93
142
194
236
237
196
131
72
27
-2
-16
-29
-33
-37
-36
-35
-34
-35
-34
-32
-33
-37
-30
-32
-28
-32
-26
-26
-25
-26
-22
-25
-22
-20
-18
-17
-15
-15
-9
-11
-11
-8
-6
-6
-4
0
2
0
5
4
6
8
11
11
15
14
14
11
15
18
15
17
18
18
18
18
15
16
13
7
6
2
-2
-6
-11
-13
-18
-22
-22
-30
-26
-31
-35
-35
-34
-39
-39
-39
-39
-40
-37
-37
-37
-39
-35
-32
-34
-33
-33
-33
-32
-29
-30
-33
-34
-30
-29
-29
-31
-28
-28
-29
-29
-31
-30
-30
-28
-30
-32
-27
-29
-26
-26
-27
-25
-29
-28
-25
-26
-27
-25
-27
-26
-22
-26
-26
-23
-23
-21
-23
-23
-20
-20
-18
-20
-21
-19
-19
-17
-16
-17
-17
-13
-14
-14
-14
-13
-14
-11
-10
-11
-7
-8
-9
-7
-4
-6
-1
-2
-4
-4
-10
-9
-11
-12
-13
-11
-12
-11
-11
-12
-11
-10
-8
-12
-11
-13
-14
-21
-25
-23
-10
5
31
64
108
156
211
253
250
194
116
62
19
-9
-23
-33
-38
-36
-36
-32
-31
-32
-37
-33
-31
-29
-31
-29
-29
-28
-24
-26
-25
-22
-22
-19
-17
-17
-17
-18
-14
-15
-11
-13
-7
-5
-5
-2
-3
0
1
-1
4
8
7
10
9
10
12
15
16
16
15
18
17
16
17
19
15
19
17
18
15
13
9
4
-1
-6
-9
-12
-19
-19
-21
-24
-28
-30
-33
-35
-38
-35
-39
-37
-36
-35
-33
-34
-33
-32
-30
-31
-29
-29
-31
-29
-29
-30
-27
-28
-28
-28
-27
-26
-24
-23
-24
-27
-23
-27
-27
-22
-25
-25
-27
-23
-24
-24
-22
-20
-20
-19
-18
-20
-18
-20
-18
-16
-17
-18
-16
-17
-15
-15
-13
-16
-13
-13
-13
-12
-11
-13
-11
-8
-10
-8
-8
-8
-9
-5
-9
-7
-8
-3
0
-3
3
2
2
2
1
-3
-3
-6
-4
-9
-7
-5
-6
-9
-8
-11
-7
-6
-6
-4
-7
-14
-16
-18
-18
-4
12
40
72
116
165
218
260
248
191
122
62
23
-4
-15
-26
-33
-29
-29
-28
-27
-28
-27
-27
-29
-29
-25
-24
-22
-20
-24
-20
-20
-21
-18
-13
-17
-12
-10
-8
-9
-7
-6
-5
-5
-6
2
1
3
2
5
8
8
9
11
13
15
14
19
23
23
24
22
24
26
26
27
25
26
27
21
22
19
17
15
8
4
2
-7
-10
-14
-14
-20
-22
-25
-24
-26
-31
-32
-33
-32
-35
-36
-35
-32
-33
-32
-31
-32
-28
-29
-28
-28
-28
-27
-26
-26
-26
-28
-25
-29
-26
-26
-24
-27
-27
-31
-22
-27
-27
-25
-24
-26
-24
-24
-25
-23
-23
-25
-22
-23
-21
-22
-23
-22
-23
-21
-24
-20
-20
-19
-20
-17
-21
-17
-19
-18
-18
-18
-17
-19
-17
-17
-20
-19
-16
-17
-14
-17
-17
-11
-13
-10
-8
-8
-5
-5
-5
-5
-6
-7
-9
-10
-12
-13
-13
-11
-14
-13
-12
-12
-10
-8
-9
-10
-13
-14
-18
-21
-20
-13
-5
18
49
84
131
183
227
244
210
148
83
34
8
-14
-24
-26
-30
-33
-30
-29
-31
-30
-31
-28
-31
-26
-27
-26
-26
-24
-25
-22
-20
-19
-17
-17
-16
-14
-13
-10
-10
-7
-8
-7
-7
-6
-5
-3
-1
3
4
5
3
10
6
6
8
13
10
14
11
14
16
17
14
17
17
14
16
14
13
8
8
7
4
0
-7
-7
-12
-16
-23
-26
-24
-30
-29
-32
-34
-39
-39
-41
-38
-40
-37
-38
-37
-40
-37
-35
-32
-31
-30
-31
-27
-30
-28
-29
-28
-27
-28
-25
-27
-26
-30
-24
-29
-27
-26
-24
-29
-26
-29
-27
-26
-29
-24
-25
-23
-23
-21
-23
-22
-24
-23
-23
-22
-18
-20
-21
-23
-21
-22
-23
-20
-21
-21
-22
-20
-19
-23
-21
-18
-16
-18
-19
-20
-18
-16
-19
-17
-15
-13
-15
-13
-11
-8
-8
-8
-5
-3
-5
-4
-6
-9
-11
-11
-11
-15
-13
-13
-14
-11
-11
-10
-10
-11
-11
-10
-11
-16
-20
-22
-21
-10
7
24
58
98
144
197
241
237
192
131
69
27
1
-19
-24
-29
-26
-28
-28
-33
-32
-31
-29
-29
-28
-29
-24
-26
-26
-26
-23
-25
-19
-19
-18
-16
-16
-13
-12
-10
-8
-13
-10
-9
-7
-4
-3
-1
-2
1
2
1
3
6
7
8
6
11
10
12
14
17
13
15
16
14
16
15
12
14
12
7
3
3
-5
-4
-9
-14
-15
-16
-22
-26
-26
-30
-34
-38
-35
-41
-42
-41
-40
-44
-40
-39
-39
-40
-39
-37
-37
-37
-35
-34
-35
-33
-34
-35
-32
-32
-33
-29
-30
-31
-30
-30
-29
-30
-29
-26
-28
-25
-31
-27
-24
-28
-27
-27
-24
-24
-23
-22
-22
-25
-25
-24
-27
-22
-22
-20
-22
-21
-18
-19
-24
-20
-18
-18
-17
-16
-14
-16
-17
-12
-13
-12
-15
-14
-13
-15
-16
-14
-10
-14
-9
-12
-10
-12
-8
-9
-8
-9
-6
-5
0
0
1
0
2
-2
0
-5
-9
-8
-6
-4
-8
-8
-8
-8
-5
-9
-7
-5
-6
-10
-10
-15
-22
-21
-9
10
31
61
103
152
202
240
240
190
124
71
30
-1
-18
-26
-29
-30
-31
-26
-28
-29
-28
-28
-27
-29
-28
-25
-27
-24
-25
-21
-19
-19
-19
-16
-14
-12
-15
-8
-8
-9
-9
-4
-7
-9
-6
0
-1
2
2
3
3
8
6
3
4
7
7
7
10
11
12
12
10
9
10
11
12
10
10
7
6
4
-1
-3
-6
-7
-8
-15
-19
-21
-24
-24
-28
-29
-31
-32
-34
-32
-35
-35
-35
-34
-32
-35
-34
-32
-30
-33
-28
-31
-29
-28
-28
-29
-27
-29
-28
-29
-26
-28
-26
-25
-24
-28
-26
-25
-26
-28
-26
-26
-27
-27
-27
-25
-27
-25
-27
-24
-24
-26
-22
-26
-25
-21
-22
-22
-20
-21
-25
-18
-18
-20
-20
-17
-20
-18
-16
-19
-16
-12
-15
-14
-17
-13
-15
-14
-15
-12
-10
-7
-9
-7
-13
-11
-8
-10
-9
-6
-7
-5
-6
-4
-3
-3
-1
2
4
7
7
9
8
8
7
3
-2
-2
-1
-4
-4
-4
-4
-6
-4
-3
-4
-4
-3
-3
-4
-6
-9
-14
-16
-11
5
24
51
85
135
180
230
248
220
159
97
47
15
-4
-16
-24
-29
-26
-29
-26
-29
-30
-28
-29
-27
-24
-27
-20
-23
-22
-20
-21
-19
-18
-19
-18
-14
-15
-12
-11
-9
-9
-7
-4
-5
0
-2
5
2
4
3
3
3
7
6
7
12
11
11
14
14
11
11
12
14
15
11
13
13
11
8
6
4
1
1
-2
-8
-10
-12
-12
-18
-18
-22
-27
-28
-26
-31
-33
-33
-31
-34
-37
-36
-33
-35
-33
-32
-34
-33
-28
-28
-29
-26
-27
-26
-28
-28
-27
-26
-28
-24
-24
-26
-22
-26
-26
-27
-26
-23
-22
-27
-23
-24
-27
-25
-26
-22
-23
-23
-24
-24
-22
-21
-21
-19
-18
-22
-19
-21
-18
-16
-17
-16
-19
-18
-15
-16
-17
-16
-15
-13
-16
-15
-14
-17
-16
-17
-16
-16
-13
-14
-16
-15
-16
-13
-14
-12
-11
-11
-12
-13
-17
-10
-13
-8
-11
-9
-7
-7
-9
-9
1
0
0
2
3
4
0
-3
-5
-3
-9
-7
-4
-7
-7
-9
-8
-8
-11
-9
-10
-8
-9
-12
-14
-20
-20
-12
-2
15
43
78
124
176
224
247
222
164
99
50
15
-6
-18
-27
-30
-27
-32
-32
-31
-29
-30
-30
-31
-31
-29
-28
-27
-29
-24
-24
-23
-24
-19
-20
-17
-17
-15
-16
-13
-12
-12
-8
-8
-5
-8
-6
-3
-5
-2
-6
-2
0
2
3
1
4
6
7
10
8
8
10
9
10
11
13
10
10
10
8
4
5
1
-5
-6
-10
-14
-14
-21
-21
-25
-26
-28
-33
-33
-33
-34
-35
-36
-37
-39
-37
-34
-38
-34
-35
-35
-34
-36
-32
-35
-33
-32
-31
-34
-32
-32
-31
-31
-32
-31
-33
-31
-28
-30
-30
-31
-31
-33
-29
-29
-28
-27
-26
-26
-28
-26
-26
-24
-23
-22
-24
-23
-23
-21
-20
-21
-18
-22
-21
-21
-17
-19
-19
-17
-16
-19
-16
-18
-17
-18
-18
-17
-17
-18
-17
-19
-19
-15
-14
-17
-15
-15
-14
-14
-13
-13
-11
-11
-9
-11
-10
-6
-8
-8
-4
-5
-5
1
3
5
4
8
6
3
-2
-3
-5
-4
-4
-6
-10
-8
-9
-7
-7
-5
-3
-7
-7
-9
-10
-15
-20
-14
-8
8
27
57
96
144
190
234
238
196
132
73
36
5
-15
-22
-29
-31
-34
-33
-33
-32
-31
-31
-28
-28
-29
-26
-26
-24
-25
-23
-21
-25
-21
-23
-18
-16
-15
-14
-15
-15
-10
-13
-11
-6
-10
-7
-4
-4
1
-1
4
5
4
8
8
7
13
8
10
12
11
13
14
9
17
15
11
14
11
11
10
7
4
-2
0
-5
-10
-11
-15
-18
-21
-20
-25
-26
-29
-30
-32
-36
-34
-38
-38
-32
-33
-33
-30
-32
-31
-29
-26
-30
-27
-28
-26
-29
-28
-24
-26
-27
-27
-26
-24
-24
-23
-27
-25
-24
-24
-27
-27
-21
-25
-24
-23
-25
-25
-23
-22
-23
-23
-23
-22
-23
-24
-22
-19
-22
-20
-19
-23
-20
-21
-20
-21
-22
-19
-18
-18
-16
-16
-17
-16
-15
-15
-17
-18
-16
-16
-18
-16
-15
-16
-15
-12
-12
-12
-14
-13
-12
-11
-14
-11
-9
-10
-11
-5
-6
-6
-7
2
0
2
3
2
-2
-5
-7
-10
-9
-9
-9
-8
-8
-9
-9
-8
-9
-7
-10
-6
-4
-11
-17
-16
-17
-9
9
28
59
101
146
195
236
247
205
140
83
38
12
-8
-20
-28
-28
-29
-27
-26
-28
-29
-30
-26
-30
-28
-29
-24
-25
-27
-25
-22
-23
-21
-20
-16
-16
-12
-13
-13
-10
-11
-8
-6
-9
-3
-2
0
-3
3
4
4
11
9
9
10
10
11
13
11
15
14
12
12
14
15
15
15
16
15
14
11
9
6
1
-3
-5
-8
-14
-16
-18
-25
-23
-23
-29
-33
-36
-35
-34
-34
-36
-36
-34
-36
-33
-34
-35
-34
-34
-32
-29
-32
-33
-30
-30
-30
-29
-29
-27
-27
-26
-26
-26
-29
-27
-21
-24
-21
-22
-20
-18
-17
-19
-21
-21
-22
-19
-20
-21
-21
-16
-19
-19
-21
-23
-18
-16
-23
-20
-18
-17
-19
-17
-17
-17
-14
-15
-16
-14
-18
-15
-14
-15
-12
-12
-16
-13
-14
-13
-11
-12
-12
-14
-16
-14
-17
-13
-12
-11
-11
-11
-11
-13
-8
-5
-6
-6
-3
-3
-2
-5
-7
-11
-11
-11
-14
-13
-14
-11
-12
-15
-11
-13
-13
-11
-13
-15
-13
-20
-22
-23
-16
0
17
52
88
132
180
223
244
207
147
85
38
9
-11
-22
-29
-32
-32
-33
-33
-32
-30
-33
-31
-31
-32
-29
-29
-27
-27
-25
-24
-24
-18
-18
-17
-20
-17
-15
-13
-13
-13
-13
-7
-6
-6
-4
-5
0
-1
-3
-3
3
2
5
4
3
10
8
13
12
11
15
13
11
14
14
15
13
15
11
9
8
10
5
6
-5
-9
-10
-10
-18
-20
-22
-24
-26
-30
-33
-34
-34
-38
-34
-34
-38
-36
-38
-34
-34
-33
-34
-36
-33
-34
-32
-31
-31
-30
-32
-30
-29
-27
-29
-26
-29
-29
-27
-28
-25
-26
-29
-27
-28
-30
-26
-25
-25
-27
-24
-23
-23
-23
-20
-23
-23
-20
-20
-22
-21
-19
-21
-20
-18
-18
-16
-18
-21
-19
-18
-21
-19
-17
-17
-17
-19
-15
-15
-12
-17
-13
-12
-13
-16
-12
-8
-14
-14
-15
-14
-15
-12
-11
-13
-10
-10
-9
-9
-4
-3
-3
1
3
2
1
0
0
-5
-4
-6
-7
-4
-8
-9
-9
-6
-6
-6
-6
-6
-4
-6
-12
-15
-18
-19
-11
2
22
48
83
128
178
225
248
222
164
101
51
15
-4
-16
-24
-29
-30
-31
-31
-31
-29
-28
-31
-30
-28
-26
-26
-26
-24
-23
-22
-22
-22
-18
-15
-22
-16
-19
-15
-15
-12
-9
-14
-11
-4
-7
-7
-5
-4
-1
-2
3
2
3
6
9
11
7
12
11
13
10
12
14
10
12
10
12
10
8
9
4
2
-2
-5
-6
-15
-11
-18
-23
-24
-25
-27
-31
-33
-34
-38
-39
-40
-40
-40
-40
-41
-41
-41
-39
-38
-37
-38
-39
-36
-32
-37
-35
-31
-33
-30
-33
-34
-32
-33
-35
-33
-34
-31
-32
-30
-28
-31
-29
-32
-31
-29
-28
-28
-26
-28
-27
-29
-30
-27
-27
-29
-27
-24
-29
-27
-25
-24
-25
-24
-21
-19
-20
-23
-21
-18
-20
-19
-18
-18
-19
-19
-16
-16
-17
-18
-17
-13
-16
-14
-18
-13
-13
-19
-15
-15
-8
-12
-13
-12
-10
-9
-8
-5
-4
1
-1
2
-2
-4
-5
-7
-9
-10
-8
-10
-9
-11
-9
-12
-8
-12
-9
-11
-8
-11
-16
-21
-21
-21
-6
13
39
76
121
172
227
260
244
180
110
55
16
-9
-21
-29
-31
-34
-30
-31
-29
-29
-29
-31
-27
-24
-29
-30
-27
-24
-24
-22
-20
-21
-16
-17
-14
-13
-12
-15
-11
-9
-4
-8
-3
-5
0
-4
2
4
3
8
8
9
10
9
10
10
13
15
16
17
18
15
19
21
18
17
15
18
16
15
14
9
7
3
0
-4
-12
-15
-14
-20
-23
-26
-30
-32
-34
-37
-39
-40
-40
-42
-40
-38
-43
-41
-39
-41
-41
-37
-39
-38
-34
-37
-36
-34
-33
-32
-35
-34
-33
-35
-35
-30
-28
-30
-29
-28
-27
-29
-25
-26
-24
-25
-27
-22
-25
-22
-23
-25
-25
-21
-22
-20
-20
-20
-20
-16
-20
-19
-19
-16
-17
-14
-18
-19
-16
-19
-17
-14
-20
-17
-14
-15
-17
-17
-13
-15
-13
-13
-10
-11
-14
-7
-8
-5
-4
-7
-1
-1
1
-2
-7
-3
-2
-4
-5
-7
-5
-9
-5
-9
-6
-5
-4
-7
-7
-5
-9
-14
-17
-17
-11
4
27
52
95
139
194
244
267
229
167
96
45
14
-8
-21
-23
-26
-25
-25
-27
-23
-24
-22
-25
-19
-22
-18
-17
-17
-18
-17
-16
-15
-12
-12
-10
-9
-11
-8
-6
-5
1
-3
3
1
5
4
5
8
9
9
9
14
18
16
17
19
20
20
20
23
24
28
28
25
29
28
29
29
25
24
21
18
19
12
9
3
2
-6
-7
-14
-16
-19
-24
-26
-28
-33
-32
-34
-32
-35
-39
-35
-34
-38
-37
-31
-32
-31
-30
-31
-33
-28
-31
-29
-28
-31
-31
-29
-28
-26
-24
-27
-24
-29
-27
-29
-26
-28
-31
-25
-26
-28
-29
-29
-26
-26
-30
-27
-24
-25
-24
-25
-23
-23
-20
-20
-22
-24
-20
-20
-21
-17
-19
-16
-18
-17
-19
-17
-16
-16
-19
-19
-19
-17
-17
-16
-17
-15
-12
-11
-10
-9
-10
-5
-4
-3
0
-4
-7
-6
-9
-10
-8
-13
-10
-15
-10
-14
-13
-13
-12
-14
-12
-9
-11
-14
-20
-24
-22
-18
-9
11
37
76
116
166
216
244
226
165
99
43
9
-15
-28
-32
-35
-35
-35
-35
-35
-30
-29
-30
-30
-33
-31
-26
-28
-27
-27
-20
-23
-22
-16
-21
-19
-15
-15
-10
-13
-11
-9
-8
-4
-5
-5
-4
-1
1
4
3
4
7
8
10
13
13
16
14
16
18
18
21
20
24
22
19
20
18
18
17
14
13
5
3
0
-7
-10
-12
-18
-18
-23
-24
-29
-30
-31
-35
-35
-37
-36
-40
-39
-40
-37
-36
-34
-34
-35
-37
-34
-32
-33
-31
-29
-31
-29
-31
-29
-31
-29
-27
-31
-26
-31
-29
-31
-28
-31
-28
-29
-24
-27
-26
-27
-28
-24
-26
-25
-23
-24
-20
-22
-21
-20
-23
-21
-23
-21
-21
-18
-20
-17
-16
-18
-18
-17
-16
-14
-17
-19
-16
-15
-17
-17
-17
-16
-14
-15
-12
-9
-13
-9
-10
-10
-10
-10
-4
-3
-5
0
0
0
-2
-4
-9
-8
-8
-9
-10
-8
-4
-6
-7
-6
-9
-9
-6
-10
-8
-10
-15
-23
-23
-14
-8
14
39
74
115
171
218
246
223
166
88
48
14
-6
-22
-31
-29
-34
-33
-36
-34
-34
-34
-31
-31
-32
-31
-31
-28
-29
-27
-24
-25
-25
-22
-21
-22
-16
-12
-12
-13
-13
-13
-11
-8
-6
-9
-2
-3
1
-3
3
3
6
7
7
5
10
8
12
12
13
11
15
17
17
17
16
15
13
12
10
9
3
-1
-2
-6
-11
-12
-19
-21
-25
-25
-28
-33
-35
-38
-36
-36
-37
-40
-37
-40
-41
-39
-36
-39
-37
-38
-35
-36
-31
-37
-31
-32
-32
-29
-31
-33
-29
-29
-30
-28
-27
-27
-25
-29
-29
-31
-27
-28
-27
-30
-29
-29
-27
-27
-31
-28
-29
-29
-30
-29
-27
-27
-29
-24
-24
-25
-23
-25
-28
-25
-25
-27
-25
-23
-25
-23
-20
-23
-18
-22
-21
-18
-18
-21
-18
-21
-18
-16
-20
-18
-15
-14
-12
-14
-12
-12
-14
-11
-8
-7
-5
-4
-2
-1
-1
-4
-4
-6
-7
-6
-7
-10
-13
-8
-9
-10
-8
-5
-9
-6
-7
-7
-6
-13
-17
-18
-17
2
13
41
77
119
168
216
248
233
173
107
56
24
-3
-19
-25
-29
-29
-30
-32
-31
-30
-31
-28
-29
-31
-29
-24
-22
-24
-22
-24
-23
-18
-19
-20
-17
-12
-14
-13
-16
-11
-10
-10
-6
-7
-1
1
-3
8
5
8
6
5
11
10
13
12
17
16
16
17
16
18
17
17
17
17
19
15
19
14
11
10
6
8
0
-3
-7
-9
-15
-15
-20
-20
-24
-25
-30
-30
-32
-30
-31
-30
-35
-33
-32
-33
-30
-32
-35
-29
-28
-30
-26
-23
-25
-25
-26
-27
-24
-23
-23
-24
-20
-20
-23
-22
-23
-22
-20
-23
-23
-25
-23
-22
-23
-20
-25
-21
-21
-23
-21
-24
-25
-19
-23
-21
-21
-20
-19
-23
-19
-19
-18
-18
-20
-20
-14
-17
-18
-17
-16
-19
-17
-16
-14
-12
-14
-10
-11
-13
-11
-12
-13
-10
-12
-12
-11
-11
-11
-10
-12
-9
-13
-10
-10
-10
-7
-7
-3
-3
1
2
-1
-3
-5
-4
-7
-9
-10
-7
-10
-8
-7
-12
-13
-10
-8
-8
-8
-8
-10
-15
-20
-24
-20
-13
5
30
62
110
151
203
242
239
191
125
71
28
-1
-18
-23
-26
-29
-31
-31
-33
-30
-31
-28
-31
-30
-27
-27
-29
-26
-27
-24
-24
-22
-19
-20
-18
-15
-16
-13
-13
-12
-11
-11
-9
-6
-5
-4
-3
-5
0
-2
1
4
3
7
7
7
9
8
9
11
11
9
13
14
15
11
14
11
11
9
9
5
6
0
0
-6
-10
-17
-15
-23
-24
-24
-27
-28
-34
-37
-35
-37
-37
-39
-36
-38
-38
-40
-40
-38
-40
-38
-37
-37
-37
-31
-34
-35
-32
-33
-31
-34
-28
-32
-30
-29
-27
-26
-28
-30
-33
-28
-30
-30
-29
-29
-31
-29
-28
-29
-32
-28
-28
-26
-27
-25
-25
-26
-26
-27
-28
-24
-26
-28
-27
-26
-26
-24
-24
-23
-22
-22
-21
-21
-20
-20
-21
-19
-17
-19
-20
-17
-17
-17
-16
-17
-14
-13
-15
-14
-11
-11
-8
-9
-9
-8
-7
-5
-3
-2
0
0
-2
-5
-6
-6
-7
-8
-8
-9
-9
-5
-11
-11
-9
-12
-8
-8
-10
-13
-15
-18
-22
-26
-16
0
17
48
88
138
189
242
260
222
153
89
36
3
-17
-28
-35
-37
-34
-37
-36
-33
-30
-26
-27
-29
-28
-25
-25
-25
-21
-21
-20
-19
-18
-18
-17
-17
-15
-11
-13
-8
-9
-5
-4
-5
-1
-5
1
1
4
7
9
7
7
10
9
12
12
11
16
17
17
18
20
20
19
19
17
19
17
20
16
14
10
7
5
0
-5
-7
-9
-13
-21
-21
-26
-26
-29
-28
-36
-32
-33
-39
-36
-38
-39
-39
-39
-37
-35
-35
-35
-32
-32
-32
-28
-31
-35
-30
-31
-33
-32
-32
-30
-33
-29
-30
-27
-33
-27
-28
-26
-27
-29
-23
-26
-24
-20
-22
-21
-24
-25
-25
-24
-20
-23
-20
-24
-21
-21
-21
-19
-19
-21
-16
-16
-17
-15
-16
-14
-18
-12
-15
-11
-11
-13
-14
-13
-11
-9
-11
-9
-9
-8
-5
-4
-4
2
-2
4
-1
4
0
0
-4
-4
-7
-6
-8
-6
-7
-8
-5
-8
-5
-8
-7
-8
-7
-13
-18
-20
-15
-12
7
30
64
110
156
211
252
250
203
131
70
27
-3
-18
-27
-33
-28
-29
-25
-29
-27
-24
-25
-20
-25
-19
-21
-21
-21
-20
-16
-16
-13
-15
-11
-10
-9
-7
-6
-6
-5
-4
-5
2
-1
5
3
7
4
8
9
11
14
11
14
16
15
17
19
19
24
20
23
25
23
24
21
21
21
20
18
17
17
12
9
3
-1
-3
-8
-16
-20
-23
-24
-27
-31
-31
-35
-33
-39
-39
-39
-41
-38
-39
-38
-38
-37
-38
-38
-36
-37
-36
-35
-33
-37
-35
-33
-35
-32
-35
-32
-33
-33
-32
-33
-31
-32
-34
-30
-30
-31
-31
-31
-35
-32
-28
-30
-27
-28
-28
-26
-26
-25
-27
-25
-27
-27
-23
-24
-26
-23
-22
-23
-23
-20
-23
-21
-21
-19
-23
-21
-20
-18
-22
-17
-18
-15
-19
-13
-14
-15
-13
-8
-10
-4
-3
1
-4
-2
-7
-9
-11
-8
-11
-9
-13
-13
-12
-11
-11
-11
-8
-10
-11
-9
-11
-13
-19
-20
-20
-11
8
29
64
103
152
205
247
249
197
128
69
26
-2
-19
-29
-29
-30
-33
-33
-26
-31
-27
-26
-28
-26
-25
-27
-24
-26
-25
-20
-19
-19
-14
-12
-12
-11
-14
-10
-7
-8
-7
-9
-1
-3
-3
0
0
2
4
3
10
6
4
9
10
11
10
17
14
16
16
15
17
17
15
16
20
18
15
15
16
8
5
3
0
-2
-6
-12
-14
-18
-20
-21
-29
-29
-33
-32
-34
-33
-35
-37
-37
-39
-36
-36
-35
-35
-34
-36
-32
-32
-31
-32
-32
-28
-32
-28
-29
-27
-31
-26
-29
-28
-30
-29
-27
-29
-27
-30
-28
-27
-26
-30
-24
-25
-22
-21
-24
-25
-25
-25
-23
-19
-22
-20
-22
-21
-21
-20
-19
-17
-21
-19
-17
-16
-16
-18
-13
-14
-15
-13
-14
-14
-13
-11
-10
-10
-12
-11
-12
-11
-7
-9
-6
-5
-3
2
0
0
-4
-6
-8
-6
-9
-10
-9
-7
-9
-9
-10
-10
-8
-9
-10
-9
-12
-15
-19
-22
-20
-10
10
32
63
105
153
202
241
241
192
125
66
23
-1
-17
-24
-27
-31
-33
-32
-31
-30
-34
-29
-30
-31
-29
-29
-28
-25
-29
-24
-24
-20
-19
-21
-17
-20
-18
-15
-14
-13
-11
-9
-9
-7
-9
-6
-9
-5
-3
2
5
4
8
8
7
8
11
10
13
13
14
16
17
17
18
16
15
13
17
15
9
10
7
7
4
-3
-9
-11
-16
-20
-23
-25
-25
-28
-30
-33
-34
-37
-36
-38
-37
-37
-37
-37
-37
-35
-34
-32
-32
-32
-33
-32
-33
-30
-32
-31
-29
-31
-29
-29
-29
-27
-28
-25
-28
-26
-28
-28
-27
-29
-26
-29
-27
-25
-27
-26
-29
-25
-26
-26
-26
-28
-23
-22
-25
-24
-25
-21
-23
-23
-21
-23
-21
-20
-18
-17
-18
-18
-17
-15
-15
-16
-14
-17
-14
-14
-12
-12
-12
-12
-9
-8
-7
-4
-4
-2
0
-1
2
-1
-4
-7
-9
-10
-11
-7
-10
-11
-14
-11
-11
-10
-10
-11
-11
-10
-13
-14
-20
-20
-18
-7
12
41
74
113
168
215
246
230
173
111
57
17
-1
-19
-25
-27
-28
-29
-30
-30
-31
-28
-30
-32
-31
-29
-24
-29
-30
-26
-25
-25
-23
-23
-22
-19
-17
-17
-16
-13
-11
-10
-11
-10
-9
-10
-4
-7
-9
-7
-4
1
1
5
5
6
7
10
12
11
13
16
13
16
19
17
18
16
14
12
11
10
7
7
0
-5
-9
-10
-13
-15
-17
-21
-22
-23
-26
-29
-28
-32
-34
-37
-32
-34
-33
-34
-30
-31
-30
-31
-29
-30
-30
-33
-29
-30
-30
-32
-26
-29
-28
-29
-26
-28
-27
-26
-26
-29
-29
-26
-26
-27
-27
-27
-26
-25
-29
-26
-25
-20
-24
-22
-23
-22
-22
-25
-22
-19
-22
-21
-20
-16
-17
-16
-17
-17
-18
-16
-19
-16
-15
-12
-12
-16
-14
-12
-11
-13
-13
-14
-11
-9
-13
-9
-12
-8
-6
-4
-5
0
-3
2
-1
-2
-2
-5
-7
-11
-9
-8
-7
-9
-9
-7
-10
-11
-8
-12
-9
-8
-12
-15
-16
-20
-20
-10
3
24
52
89
138
188
229
243
204
141
81
40
6
-12
-23
-30
-33
-34
-30
-31
-33
-31
-34
-33
-33
-33
-28
-31
-28
-27
-24
-23
-24
-20
-23
-22
-19
-18
-13
-13
-12
-10
-11
-7
-6
-5
-7
1
-2
2
0
1
4
5
3
7
9
7
12
11
11
14
16
12
16
15
13
16
14
12
12
9
6
5
2
-2
-3
-8
-12
-15
-18
-21
-22
-26
-30
-29
-33
-35
-34
-40
-37
-41
-35
-36
-35
-37
-34
-34
-35
-33
-31
-33
-30
-33
-30
-30
-31
-29
-32
-32
-29
-29
-27
-26
-30
-29
-28
-29
-30
-27
-27
-27
-24
-28
-23
-24
-25
-26
-24
-20
-22
-24
-24
-25
-25
-22
-23
-23
-22
-21
-25
-21
-23
-22
-23
-19
-24
-23
-20
-19
-21
-20
-18
-19
-18
-19
-15
-18
-12
-16
-15
-15
-12
-16
-15
-14
-13
-8
-10
-8
-8
-6
-9
-11
-12
-15
-13
-17
-15
-14
-11
-15
-17
-13
-13
-17
-13
-17
-15
-17
-21
-25
-28
-23
-15
4
31
64
106
157
215
256
246
193
117
56
22
-9
-23
-35
-34
-36
-32
-31
-34
-36
-31
-33
-33
-31
-30
-29
-28
-27
-25
-23
-21
-22
-20
-18
-17
-15
-16
-14
-10
-13
-10
-12
-10
-7
-7
-6
-4
-1
1
2
-2
4
8
6
5
7
11
9
13
14
14
12
16
13
15
15
17
17
14
10
9
10
7
5
2
-7
-7
-11
-14
-15
-22
-23
-23
-30
-32
-32
-39
-38
-40
-40
-40
-41
-37
-40
-37
-38
-35
-32
-35
-36
-33
-33
-33
-34
-33
-33
-31
-32
-30
-30
-31
-26
-31
-32
-29
-33
-29
-31
-29
-28
-27
-27
-28
-27
-27
-27
-25
-28
-25
-23
-22
-25
-25
-22
-19
-23
-23
-20
-20
-20
-20
-19
-20
-19
-19
-17
-16
-15
-14
-12
-14
-13
-14
-12
-13
-8
-13
-7
-11
-10
-6
-6
1
2
4
1
4
-5
-3
-8
-8
-6
-4
-10
-7
-8
-8
-5
-7
-8
-5
-7
-4
-6
-10
-12
-16
-14
-12
0
21
56
94
137
192
245
267
233
167
96
46
11
-8
-21
-30
-28
-25
-28
-27
-23
-25
-24
-23
-21
-16
-18
-20
-18
-16
-16
-10
-16
-14
-13
-10
-9
-8
-5
-5
-5
2
0
0
-1
5
8
7
10
8
10
14
14
16
18
18
19
18
22
24
22
25
25
27
26
28
24
26
27
27
24
20
17
18
13
7
9
1
-2
-6
-7
-12
-16
-19
-18
-23
-27
-27
-28
-31
-28
-29
-29
-31
-30
-28
-29
-26
-30
-27
-24
-26
-24
-24
-25
-25
-26
-24
-25
-25
-25
-25
-22
-24
-24
-24
-23
-24
-27
-27
-26
-24
-25
-23
-21
-25
-22
-21
-21
-24
-25
-21
-21
-22
-22
-21
-23
-20
-18
-16
-20
-19
-19
-19
-18
-21
-19
-17
-18
-19
-16
-16
-19
-18
-17
-14
-15
-15
-12
-10
-12
-7
-6
-6
-4
-2
2
1
-7
-5
-4
-7
-9
-8
-13
-11
-12
-13
-10
-13
-11
-13
-13
-12
-17
-16
-19
-23
-23
-13
2
22
52
98
141
196
241
246
205
139
73
32
3
-18
-25
-31
-32
-33
-32
-31
-34
-32
-33
-29
-29
-31
-27
-21
-25
-24
-25
-22
-19
-19
-16
-12
-16
-14
-11
-8
-9
-10
-9
-8
-5
-5
-2
0
2
4
4
3
4
7
9
7
7
12
11
14
14
14
16
17
16
16
16
17
18
17
16
14
10
9
9
1
1
-6
-11
-15
-17
-21
-21
-24
-30
-30
-30
-35
-37
-37
-41
-39
-38
-39
-40
-38
-38
-37
-38
-37
-34
-34
-33
-33
-35
-32
-31
-32
-30
-33
-35
-37
-29
-32
-32
-29
-31
-31
-31
-31
-29
-29
-26
-29
-28
-27
-27
-29
-28
-24
-25
-24
-22
-21
-24
-25
-23
-21
-23
-22
-21
-22
-23
-22
-21
-22
-22
-21
-20
-21
-23
-17
-19
-17
-16
-19
-13
-12
-12
-12
-11
-10
-8
-7
-6
-1
2
0
-3
-4
-6
-5
-9
-10
-8
-10
-8
-10
-10
-12
-11
-8
-8
-9
-9
-12
-15
-17
-24
-23
-21
-8
14
41
76
120
168
218
244
212
160
91
45
13
-11
-25
-30
-32
-34
-32
-33
-31
-30
-28
-31
-31
-29
-29
-29
-31
-28
-26
-24
-25
-24
-23
-18
-19
-19
-19
-17
-14
-13
-15
-11
-10
-9
-6
-4
-6
-6
-3
0
-2
0
4
8
3
6
8
8
10
12
12
16
13
15
15
14
15
13
13
13
10
5
1
0
-4
-8
-12
-17
-20
-21
-24
-28
-28
-32
-31
-34
-33
-39
-39
-40
-35
-39
-39
-38
-37
-36
-35
-35
-33
-34
-32
-32
-34
-33
-35
-31
-37
-32
-34
-35
-31
-37
-33
-31
-29
-32
-30
-33
-31
-30
-31
-30
-32
-31
-29
-31
-28
-28
-27
-26
-24
-24
-22
-22
-22
-25
-23
-22
-24
-21
-23
-21
-19
-19
-21
-18
-19
-20
-19
-17
-17
-12
-14
-14
-13
-12
-11
-13
-12
-12
-12
-10
-9
-10
-11
-9
-7
-7
-6
-2
4
0
1
1
-1
-4
-6
-9
-13
-13
-11
-11
-14
-12
-13
-11
-14
-15
-14
-17
-18
-17
-21
-23
-26
-18
-9
12
42
78
122
171
220
242
212
149
87
40
9
-15
-26
-33
-33
-32
-34
-31
-32
-32
-33
-32
-28
-30
-28
-29
-28
-25
-25
-24
-23
-21
-19
-18
-19
-21
-18
-17
-17
-17
-13
-12
-12
-7
-9
-3
-6
-5
0
0
1
2
3
8
8
9
11
10
12
9
11
13
13
12
13
13
12
12
10
9
7
4
1
1
-7
-3
-8
-12
-17
-16
-19
-22
-23
-29
-29
-30
-30
-35
-32
-32
-36
-37
-33
-31
-33
-32
-33
-30
-30
-30
-31
-28
-33
-26
-26
-31
-29
-29
-31
-31
-26
-26
-28
-27
-26
-31
-28
-26
-28
-27
-26
-30
-25
-29
-29
-27
-28
-27
-25
-24
-28
-27
-22
-23
-22
-23
-23
-22
-21
-22
-17
-20
-19
-19
-18
-17
-18
-15
-13
-16
-15
-16
-14
-15
-15
-16
-17
-13
-15
-13
-14
-13
-13
-13
-13
-10
-11
-7
-9
-7
-7
-2
-3
-1
1
2
2
-1
-4
-6
-8
-9
-10
-8
-10
-11
-13
-10
-10
-10
-9
-11
-14
-13
-13
-17
-20
-20
-19
-4
16
40
75
120
170
221
252
228
169
104
49
18
-9
-19
-28
-32
-30
-34
-31
-33
-32
-34
-31
-30
-29
-27
-27
-26
-24
-25
-22
-20
-21
-18
-21
-17
-21
-15
-15
-13
-8
-12
-9
-10
-7
-4
-2
-2
1
4
3
5
9
8
8
9
12
11
13
18
15
15
17
21
19
19
19
18
19
15
14
16
14
11
8
1
0
-5
-7
-10
-10
-16
-18
-25
-23
-26
-27
-30
-31
-31
-31
-31
-31
-28
-31
-30
-29
-29
-28
-29
-28
-28
-31
-28
-29
-32
-30
-29
-26
-26
-24
-29
-28
-26
-25
-27
-26
-29
-24
-25
-24
-25
-27
-26
-23
-25
-27
-26
-25
-25
-27
-29
-20
-22
-21
-18
-23
-20
-22
-20
-20
-22
-23
-21
-21
-21
-20
-20
-21
-19
-21
-19
-19
-16
-20
-14
-13
-18
-19
-16
-16
-15
-16
-11
-13
-13
-14
-8
-10
-6
-5
-5
0
-4
-2
-3
-7
-8
-13
-13
-11
-12
-9
-12
-11
-9
-12
-10
-13
-11
-8
-10
-12
-14
-21
-23
-20
-11
6
29
68
112
162
219
257
250
190
117
59
20
-9
-24
-28
-32
-33
-33
-34
-32
-33
-34
-32
-28
-33
-33
-27
-28
-28
-25
-25
-24
-25
-19
-18
-17
-17
-15
-13
-14
-13
-12
-11
-8
-8
-5
-4
-3
2
-1
4
2
6
10
9
9
11
11
13
14
13
12
16
16
15
16
16
17
18
16
16
11
12
7
6
3
0
-11
-9
-13
-13
-15
-18
-18
-23
-29
-29
-26
-27
-32
-30
-29
-28
-30
-29
-29
-27
-29
-27
-27
-25
-26
-25
-27
-24
-24
-22
-25
-24
-21
-23
-25
-24
-23
-22
-24
-23
-22
-20
-24
-23
-25
-22
-21
-21
-21
-22
-23
-21
-22
-21
-23
-19
-22
-18
-21
-20
-19
-22
-16
-20
-16
-16
-16
-17
-18
-12
-17
-15
-17
-14
-14
-13
-15
-14
-9
-8
-8
-4
-7
-5
-5
-2
2
0
2
5
1
-2
2
-4
-4
-5
-8
-12
-6
-10
-8
-7
-6
-7
-9
-5
-5
-5
-9
-13
-15
-19
-19
-10
6
29
59
104
150
208
251
252
198
133
72
27
1
-17
-24
-31
-30
-29
-28
-30
-25
-24
-24
-20
-21
-20
-19
-23
-20
-18
-18
-17
-16
-17
-12
-17
-10
-10
-7
-3
-6
-7
-4
-3
0
3
2
5
6
7
9
9
10
11
11
11
12
13
16
16
13
19
21
19
19
19
19
19
18
17
17
13
11
9
3
3
-3
-3
-11
-15
-17
-21
-21
-24
-26
-27
-28
-31
-30
-34
-33
-37
-32
-35
-34
-32
-33
-30
-30
-28
-28
-30
-28
-29
-27
-25
-29
-26
-27
-29
-30
-26
-31
-27
-28
-27
-24
-22
-25
-24
-24
-27
-25
-24
-26
-25
-24
-25
-26
-22
-23
-24
-24
-24
-23
-25
-23
-22
-21
-21
-19
-21
-22
-22
-20
-19
-17
-19
-19
-18
-20
-16
-17
-17
-14
-17
-15
-15
-15
-14
-14
-13
-10
-11
-7
-10
-3
-3
-1
-5
-7
-9
-14
-14
-12
-14
-13
-14
-14
-12
-13
-14
-15
-12
-12
-18
-19
-18
-20
-25
-27
-16
3
28
59
101
149
199
238
233
179
115
57
21
-9
-21
-31
-32
-35
-33
-32
-35
-34
-34
-33
-33
-32
-33
-31
-31
-29
-29
-28
-27
-26
-24
-22
-22
-19
-19
-17
-18
-17
-15
-10
-12
-11
-10
-9
-4
-5
-4
-2
-1
3
2
5
6
7
8
10
9
10
14
12
16
17
15
13
11
14
12
10
9
9
3
4
-3
-10
-13
-18
-19
-22
-22
-24
-28
-31
-33
-32
-34
-33
-36
-35
-36
-38
-37
-34
-37
-34
-32
-33
-33
-29
-33
-31
-29
-30
-30
-29
-30
-27
-29
-28
-28
-30
-24
-27
-30
-28
-28
-27
-29
-27
-27
-29
-31
-25
-27
-29
-30
-28
-29
-26
-29
-27
-27
-26
-25
-26
-26
-23
-24
-23
-23
-23
-22
-20
-21
-16
-18
-19
-19
-18
-21
-18
-16
-20
-17
-14
-13
-14
-12
-13
-11
-13
-10
-8
-8
-3
-4
-5
0
-5
0
-7
-9
-10
-13
-11
-13
-10
-8
-11
-9
-7
-6
-9
-7
-5
-8
-13
-18
-19
-17
-15
4
17
45
84
129
179
225
244
216
151
89
44
12
-10
-23
-28
-30
-29
-29
-30
-30
-33
-30
-33
-31
-30
-31
-29
-29
-29
-24
-22
-22
-21
-20
-22
-17
-16
-16
-13
-11
-12
-11
-12
-9
-6
-7
-5
-5
0
7
2
6
5
4
9
9
7
10
10
11
16
14
15
14
15
17
17
18
18
16
11
13
7
3
1
-3
-5
-8
-14
-14
-16
-21
-23
-26
-27
-26
-30
-35
-35
-33
-34
-32
-37
-35
-33
-31
-35
-31
-32
-31
-28
-29
-29
-29
-29
-28
-32
-29
-29
-31
-28
-28
-28
-29
-29
-30
-29
-29
-27
-25
-28
-27
-25
-29
-28
-26
-24
-23
-24
-25
-24
-23
-22
-20
-22
-20
-24
-22
-20
-18
-22
-19
-23
-19
-19
-21
-21
-19
-18
-18
-20
-20
-18
-18
-19
-18
-19
-17
-19
-16
-11
-12
-13
-12
-9
-8
-9
-5
-3
0
-2
-2
-9
-7
-9
-12
-8
-12
-14
-9
-10
-15
-14
-14
-14
-10
-9
-11
-14
-13
-17
-20
-22
-23
-6
11
34
72
118
160
208
241
229
174
110
55
14
-9
-21
-29
-32
-34
-33
-33
-32
-34
-33
-32
-32
-33
-30
-28
-29
-29
-28
-24
-24
-24
-23
-21
-23
-20
-20
-18
-15
-17
-13
-13
-15
-11
-8
-9
-5
-6
-4
-5
2
4
-5
4
5
4
7
7
8
9
11
13
14
11
16
12
13
10
12
8
7
7
3
0
-3
-11
-10
-14
-18
-20
-25
-20
-27
-27
-29
-32
-32
-32
-35
-32
-35
-37
-35
-34
-34
-32
-34
-33
-34
-31
-34
-31
-31
-31
-29
-31
-29
-31
-29
-31
-29
-30
-29
-28
-28
-30
-28
-26
-30
-28
-27
-28
-27
-26
-28
-30
-30
-30
-29
-27
-28
-24
-26
-26
-24
-26
-24
-26
-25
-23
-20
-26
-24
-24
-23
-21
-22
-25
-22
-17
-19
-19
-21
-18
-18
-15
-16
-14
-13
-12
-13
-13
-12
-10
-8
-8
-8
-5
-3
-7
-6
-7
-8
-12
-13
-13
-13
-12
-13
-11
-12
-12
-9
-14
-5
-13
-12
-13
-22
-22
-24
-18
-6
17
49
86
133
187
241
263
223
151
87
33
-1
-23
-29
-32
-34
-33
-32
-31
-31
-33
-32
-30
-30
-26
-27
-28
-25
-26
-19
-22
-22
-18
-16
-15
-15
-11
-10
-12
-8
-8
-7
-6
-5
-5
0
0
3
5
4
6
8
8
12
14
14
18
17
20
19
20
19
22
22
21
19
21
22
25
21
19
15
13
9
6
4
3
-4
-9
-10
-12
-18
-21
-22
-25
-25
-28
-27
-27
-28
-28
-29
-30
-29
-29
-25
-29
-29
-27
-25
-24
-25
-23
-23
-20
-20
-22
-25
-22
-24
-23
-23
-25
-26
-24
-23
-23
-21
-22
-23
-18
-25
-22
-19
-23
-20
-18
-21
-18
-17
-18
-16
-19
-21
-14
-17
-18
-17
-14
-16
-17
-15
-13
-14
-13
-10
-10
-13
-10
-10
-9
-10
-8
-7
-4
-7
-4
-5
-4
0
1
1
6
1
6
2
1
-4
-3
-6
-5
-6
-7
-8
-8
-6
-6
-6
-7
-4
-5
-5
-7
-11
-13
-19
-15
-3
13
40
67
109
158
213
256
259
205
138
80
32
8
-12
-20
-23
-23
-22
-25
-23
-20
-23
-20
-20
-20
-21
-21
-18
-18
-16
-15
-15
-12
-8
-10
-11
-8
-7
-6
-7
-5
-3
-5
1
3
1
3
3
8
5
3
8
10
12
12
13
14
19
15
18
19
22
19
22
24
20
22
21
20
21
18
15
15
9
6
4
-2
-7
-8
-14
-15
-16
-23
-22
-24
-28
-33
-32
-32
-36
-36
-39
-34
-35
-35
-34
-33
-34
-33
-30
-31
-32
-33
-28
-28
-29
-31
-28
-26
-29
-28
-26
-27
-27
-28
-25
-27
-28
-29
-29
-26
-29
-25
-27
-27
-25
-25
-28
-25
-25
-27
-28
-24
-25
-28
-23
-24
-26
-25
-24
-25
-23
-21
-20
-20
-25
-21
-23
-20
-20
-21
-22
-19
-18
-21
-17
-16
-14
-17
-13
-14
-11
-8
-7
-8
-7
-4
-3
-6
-7
-10
-15
-12
-16
-16
-15
-13
-12
-13
-14
-14
-13
-16
-17
-17
-15
-19
-24
-28
-25
-16
-4
19
45
88
136
188
229
239
196
131
71
28
3
-17
-29
-37
-32
-36
-34
-35
-36
-35
-35
-34
-30
-31
-30
-33
-31
-31
-27
-28
-29
-24
-25
-25
-25
-20
-20
-19
-18
-17
-16
-14
-12
-11
-11
-6
-8
-7
-4
2
2
3
8
7
5
5
7
12
9
9
11
10
9
11
10
7
12
11
8
9
3
4
0
-5
-6
-12
-15
-19
-23
-24
-28
-29
-32
-32
-37
-38
-36
-36
-38
-39
-41
-41
-37
-38
-38
-38
-38
-37
-34
-34
-33
-33
-32
-34
-30
-31
-31
-31
-30
-31
-32
-28
-28
-28
-29
-28
-29
-27
-29
-29
-28
-29
-27
-26
-25
-26
-26
-23
-28
-26
-29
-24
-23
-25
-22
-21
-22
-21
-19
-18
-21
-16
-19
-18
-17
-17
-19
-18
-16
-18
-14
-14
-15
-14
-12
-11
-14
-9
-10
-8
-8
-11
-7
-2
-1
-3
-4
-6
-7
-8
-8
-10
-10
-13
-9
-10
-7
-12
-7
-11
-8
-7
-11
-10
-15
-16
-21
-21
-13
4
23
60
90
144
193
235
241
197
133
72
34
1
-16
-28
-31
-37
-32
-28
-32
-31
-29
-33
-28
-29
-24
-27
-26
-25
-23
-24
-24
-22
-22
-20
-20
-16
-16
-15
-17
-16
-17
-8
-13
-4
-8
-5
-6
-2
-5
-1
1
5
8
5
8
8
9
12
9
12
10
15
11
13
14
18
14
13
10
10
8
6
3
4
-3
-2
-8
-12
-13
-18
-20
-21
-23
-27
-29
-30
-28
-33
-31
-31
-35
-37
-32
-33
-33
-32
-32
-30
-31
-29
-26
-26
-26
-28
-28
-26
-27
-29
-26
-27
-29
-26
-27
-29
-27
-26
-27
-29
-30
-27
-28
-27
-25
-24
-25
-24
-27
-26
-25
-26
-29
-29
-29
-26
-29
-25
-20
-23
-20
-21
-20
-21
-20
-20
-19
-16
-21
-18
-17
-18
-16
-17
-17
-18
-14
-16
-16
-17
-14
-12
-12
-14
-10
-10
-8
-8
-8
-8
-3
-1
1
-3
-7
-8
-10
-13
-13
-9
-11
-11
-13
-11
-12
-9
-11
-9
-11
-12
-14
-17
-19
-25
-27
-17
1
23
56
96
144
195
237
245
198
132
71
23
-2
-17
-27
-30
-34
-32
-36
-32
-32
-31
-29
-32
-31
-30
-29
-28
-28
-29
-26
-23
-25
-20
-21
-19
-19
-18
-15
-15
-11
-13
-11
-8
-4
-6
-5
-5
-1
-3
0
2
4
3
6
4
6
7
9
11
11
10
14
13
12
12
10
12
11
11
11
10
10
9
5
2
-2
-5
-9
-13
-16
-18
-22
-26
-27
-29
-31
-32
-37
-35
-36
-34
-37
-37
-39
-35
-36
-37
-34
-37
-30
-32
-34
-32
-31
-33
-31
-31
-29
-31
-31
-31
-32
-31
-30
-29
-30
-30
-29
-29
-31
-31
-29
-31
-29
-30
-27
-26
-26
-29
-30
-29
-29
-27
-22
-24
-23
-25
-23
-21
-22
-23
-23
-25
-21
-19
-22
-20
-21
-20
-23
-19
-20
-16
-19
-15
-16
-16
-15
-14
-11
-9
-13
-10
-13
-6
-7
-6
-5
1
-3
-1
-2
-7
-8
-7
-10
-11
-12
-15
-12
-13
-12
-11
-11
-13
-11
-8
-9
-11
-14
-21
-19
-17
-9
8
36
69
113
162
220
258
251
193
120
61
21
-5
-21
-29
-32
-28
-29
-29
-30
-24
-26
-24
-26
-25
-23
-24
-19
-21
-19
-17
-15
-15
-16
-14
-15
-14
-12
-10
-9
-8
-5
-3
-5
-5
2
-1
5
3
6
8
8
10
7
11
11
13
16
15
14
16
19
18
20
16
19
20
19
19
19
18
13
13
11
6
3
-2
-4
-7
-12
-17
-18
-22
-23
-25
-26
-30
-30
-32
-29
-32
-32
-32
-33
-31
-32
-31
-28
-30
-27
-26
-24
-29
-24
-25
-24
-24
-21
-22
-20
-20
-24
-22
-22
-23
-22
-23
-24
-21
-21
-21
-18
-19
-17
-18
-19
-16
-19
-15
-15
-16
-18
-16
-12
-13
-14
-14
-14
-15
-13
-16
-15
-14
-13
-11
-16
-14
-15
-15
-14
-16
-11
-14
-11
-13
-10
-6
-8
-2
-4
-7
-4
-4
-1
5
2
5
3
4
4
1
-1
2
1
-2
1
-1
-5
-1
-6
-5
-2
-2
-1
-3
0
-6
-10
-14
-16
-16
-6
10
34
68
109
155
212
256
257
202
130
71
27
1
-19
-25
-28
-25
-26
-25
-26
-25
-23
-25
-24
-21
-23
-21
-19
-19
-17
-18
-16
-14
-14
-15
-12
-11
-11
-7
-10
-9
-11
-5
-5
2
-1
2
3
5
10
7
7
8
11
11
11
14
16
15
17
17
22
18
18
19
19
17
18
16
15
17
13
13
8
7
1
-5
-8
-11
-14
-18
-22
-24
-26
-29
-31
-34
-34
-34
-35
-39
-38
-38
-36
-39
-35
-38
-36
-39
-36
-36
-35
-35
-35
-31
-34
-31
-29
-31
-31
-33
-31
-31
-32
-33
-34
-28
-28
-30
-31
-31
-31
-30
-32
-32
-30
-33
-29
-31
-30
-32
-30
-28
-27
-29
-28
-27
-28
-28
-26
-27
-25
-28
-29
-21
-23
-23
-22
-23
-20
-23
-18
-19
-20
-17
-18
-18
-17
-17
-16
-17
-14
-14
-15
-12
-13
-12
-8
-5
-5
-7
-5
-10
-9
-12
-10
-13
-14
-10
-14
-11
-10
-11
-11
-11
-10
-12
-9
-11
-17
-17
-23
-23
-19
-8
11
41
80
128
180
226
247
214
149
89
38
8
-15
-24
-31
-33
-34
-32
-35
-34
-32
-31
-31
-28
-33
-31
-28
-28
-28
-22
-27
-25
-28
-23
-23
-24
-18
-20
-17
-18
-16
-14
-13
-8
-10
-4
-8
-5
0
-2
3
2
2
2
7
8
7
7
10
9
11
14
13
13
11
12
14
11
14
11
8
3
3
0
0
-7
-9
-10
-18
-18
-21
-22
-28
-27
-31
-33
-32
-37
-36
-40
-40
-37
-38
-36
-38
-36
-34
-34
-31
-34
-33
-33
-33
-33
-28
-30
-29
-28
-30
-26
-28
-27
-25
-27
-25
-25
-22
-25
-24
-27
-25
-25
-23
-24
-21
-22
-22
-20
-21
-20
-18
-22
-21
-21
-20
-21
-19
-21
-20
-21
-18
-19
-20
-16
-17
-19
-19
-18
-19
-19
-18
-16
-14
-21
-19
-14
-13
-14
-14
-14
-15
-13
-8
-10
-13
-11
-13
-5
-2
-7
-2
-2
-3
-2
-5
-7
-6
-13
-10
-11
-15
-13
-13
-9
-13
-10
-9
-10
-9
-10
-12
-11
-18
-21
-20
-18
-2
19
45
79
125
176
222
247
218
159
95
47
12
-9
-22
-27
-31
-34
-32
-30
-33
-29
-30
-28
-27
-28
-26
-26
-25
-26
-25
-23
-22
-22
-19
-21
-17
-17
-14
-14
-13
-8
-8
-9
-9
-8
-6
-3
-5
-2
-1
3
5
7
4
9
9
10
9
12
11
11
14
14
15
14
17
12
16
11
10
8
9
8
4
0
0
-9
-8
-13
-15
-18
-20
-21
-26
-24
-27
-29
-30
-30
-32
-33
-28
-32
-33
-29
-30
-29
-29
-28
-29
-24
-23
-27
-24
-26
-25
-24
-26
-26
-24
-25
-22
-24
-23
-26
-26
-29
-27
-29
-24
-22
-22
-22
-22
-23
-24
-25
-25
-22
-23
-23
-26
-25
-25
-25
-25
-22
-23
-24
-21
-22
-20
-21
-22
-22
-21
-23
-20
-16
-18
-17
-17
-21
-16
-19
-18
-19
-20
-19
-18
-16
-14
-14
-12
-12
-12
-12
-11
-7
-8
-5
-4
-5
-7
-6
-8
-9
-10
-10
-14
-11
-11
-9
-11
-11
-12
-13
-13
-12
-12
-14
-13
-12
-17
-21
-24
-21
-9
10
37
67
109
156
205
243
238
184
118
64
24
-2
-19
-29
-33
-29
-35
-32
-32
-33
-31
-31
-31
-29
-28
-29
-28
-29
-25
-27
-25
-23
-22
-20
-21
-18
-18
-19
-12
-13
-13
-12
-8
-9
-7
-5
-4
-3
-3
-2
4
1
1
6
7
5
10
8
11
10
10
12
11
13
12
13
13
14
12
12
8
5
8
2
-3
-5
-7
-12
-17
-18
-21
-21
-23
-28
-31
-31
-34
-35
-32
-34
-33
-37
-38
-35
-34
-34
-35
-30
-32
-30
-30
-30
-31
-32
-30
-29
-29
-30
-30
-33
-33
-29
-31
-28
-30
-28
-30
-30
-30
-29
-30
-28
-25
-27
-29
-28
-27
-24
-26
-24
-26
-27
-24
-28
-25
-24
-25
-25
-25
-24
-25
-23
-20
-23
-24
-23
-22
-22
-23
-19
-23
-20
-24
-19
-22
-19
-22
-18
-17
-19
-13
-17
-13
-13
-13
-8
-10
-3
-9
0
-3
2
-3
-2
-7
-6
-10
-8
-9
-4
-11
-9
-10
-9
-8
-9
-8
-9
-12
-11
-15
-19
-22
-24
-16
-1
21
54
90
135
191
243
261
218
152
85
31
4
-19
-30
-33
-35
-32
-32
-30
-31
-34
-31
-30
-30
-30
-27
-29
-27
-27
-21
-23
-25
-20
-19
-14
-17
-12
-14
-12
-12
-12
-9
-9
-8
-7
-7
-4
-2
-2
3
6
4
5
9
10
7
10
10
11
13
11
11
13
12
13
14
13
11
14
11
11
9
8
4
-1
-3
-7
-11
-14
-17
-21
-20
-24
-25
-28
-29
-34
-30
-32
-32
-32
-35
-31
-32
-32
-33
-30
-30
-32
-31
-31
-29
-30
-28
-26
-26
-24
-25
-26
-28
-26
-23
-25
-26
-22
-22
-23
-23
-22
-20
-20
-18
-21
-19
-19
-20
-18
-25
-19
-20
-16
-20
-18
-16
-17
-17
-16
-16
-16
-14
-15
-14
-16
-16
-13
-14
-10
-12
-11
-13
-13
-9
-9
-5
-8
-7
-7
-4
-3
0
-2
2
4
4
2
-3
-4
-2
-1
-4
-3
-5
-9
-7
-7
-8
-4
-4
-6
-5
-4
-2
-9
-8
-14
-19
-17
-12
-1
22
49
86
130
185
233
259
227
163
97
43
10
-13
-24
-24
-27
-29
-29
-26
-22
-25
-22
-23
-23
-22
-24
-21
-21
-17
-14
-14
-15
-12
-10
-8
-6
-5
-3
-4
2
-3
-1
-2
4
1
1
1
6
7
6
7
9
8
12
10
14
14
15
16
19
17
20
17
18
19
20
18
17
17
16
16
12
7
5
5
0
-5
-9
-7
-15
-15
-20
-25
-26
-24
-31
-30
-33
-33
-32
-35
-33
-32
-32
-35
-33
-33
-30
-34
-32
-32
-30
-30
-25
-29
-28
-27
-26
-28
-29
-28
-30
-31
-29
-31
-29
-29
-29
-27
-26
-25
-26
-25
-23
-24
-24
-22
-23
-23
-20
-21
-19
-20
-21
-24
-20
-19
-21
-16
-19
-21
-17
-16
-18
-16
-18
-16
-18
-18
-16
-15
-14
-15
-12
-15
-13
-11
-13
-11
-9
-9
-6
-6
-6
0
-4
-5
-5
-4
-9
-8
-7
-11
-13
-13
-11
-12
-14
-13
-17
-14
-13
-12
-11
-19
-18
-22
-24
-18
-9
12
38
75
119
167
220
248
220
161
95
43
12
-13
-24
-32
-32
-34
-36
-35
-33
-34
-34
-38
-37
-35
-33
-33
-31
-32
-28
-26
-27
-25
-22
-21
-22
-18
-16
-17
-16
-10
-10
-11
-8
-11
-6
-5
-7
-6
-5
-2
-1
5
3
8
5
7
7
7
7
8
9
9
8
10
10
12
11
8
8
8
5
1
1
-5
-7
-12
-14
-16
-22
-25
-26
-28
-28
-31
-29
-32
-34
-37
-36
-36
-38
-35
-37
-36
-35
-33
-37
-36
-34
-34
-32
-34
-31
-31
-30
-32
-32
-28
-30
-29
-32
-33
-32
-32
-33
-32
-33
-33
-33
-31
-29
-32
-31
-30
-31
-33
-31
-28
-25
-33
-28
-25
-24
-25
-27
-24
-25
-20
-21
-21
-20
-20
-20
-19
-19
-21
-19
-21
-18
-19
-20
-17
-13
-16
-14
-15
-11
-15
-14
-14
-9
-9
-3
-4
-6
-6
-6
-6
-13
-13
-15
-18
-15
-14
-12
-13
-13
-12
-14
-13
-13
-11
-11
-14
-19
-23
-22
-23
-12
5
25
60
103
151
201
240
231
182
119
62
19
-3
-16
-26
-31
-27
-29
-31
-29
-30
-30
-32
-31
-27
-31
-29
-25
-24
-26
-27
-19
-18
-18
-19
-17
-17
-15
-11
-13
-13
-11
-11
-9
-8
-6
-5
-6
-3
-2
2
3
2
2
4
3
3
7
11
9
10
16
16
11
14
16
16
15
14
11
12
11
11
5
6
-1
-4
-8
-11
-11
-18
-17
-19
-24
-24
-24
-25
-29
-29
-28
-30
-29
-28
-32
-27
-28
-29
-26
-27
-26
-26
-22
-27
-25
-28
-26
-26
-26
-28
-27
-28
-28
-26
-25
-29
-23
-23
-23
-21
-22
-19
-20
-20
-22
-20
-21
-21
-21
-19
-20
-20
-18
-17
-17
-18
-18
-16
-18
-16
-15
-16
-14
-18
-16
-15
-11
-15
-17
-16
-13
-13
-12
-14
-13
-11
-13
-13
-12
-14
-13
-11
-12
-10
-14
-9
-10
-5
-6
-8
-3
-7
-4
-6
-7
-7
-9
-10
-13
-12
-12
-10
-15
-11
-10
-11
-12
-13
-12
-9
-13
-17
-21
-22
-25
-19
-3
17
43
83
129
176
225
241
215
149
90
44
12
-11
-22
-29
-30
-33
-31
-34
-31
-33
-30
-28
-24
-28
-26
-23
-25
-24
-18
-22
-20
-19
-16
-18
-17
-12
-13
-8
-11
-9
-9
-6
-9
-4
-5
-4
-3
-1
2
2
4
3
8
11
9
10
11
11
9
11
13
16
13
15
16
12
13
13
10
12
9
4
3
4
0
-4
-10
-11
-14
-18
-23
-25
-29
-24
-31
-31
-30
-28
-32
-35
-30
-35
-33
-30
-33
-31
-32
-30
-29
-30
-32
-28
-29
-29
-29
-26
-29
-26
-26
-23
-27
-29
-27
-28
-26
-28
-26
-31
-28
-24
-26
-25
-29
-27
-23
-20
-21
-23
-23
-23
-22
-24
-24
-21
-22
-25
-19
-22
-22
-21
-21
-21
-20
-20
-19
-21
-20
-16
-19
-13
-17
-17
-16
-15
-17
-15
-14
-16
-14
-14
-14
-13
-11
-12
-13
-11
-9
-9
-9
-7
-3
-5
2
0
2
8
4
1
3
4
-3
-3
-4
-3
-5
-6
-4
-4
-7
-4
-8
-4
-8
-8
-9
-13
-17
-18
-19
-13
-4
11
35
72
112
160
212
245
232
179
116
64
23
-4
-19
-29
-28
-33
-28
-30
-33
-32
-32
-32
-33
-28
-30
-29
-27
-25
-26
-23
-25
-24
-22
-21
-16
-17
-14
-15
-13
-12
-12
-10
-13
-8
-8
-5
-6
-6
-6
-5
0
2
4
3
6
5
8
8
7
10
9
7
10
10
13
12
13
11
12
10
9
5
5
3
2
-3
-9
-13
-14
-14
-21
-18
-20
-24
-24
-26
-27
-26
-28
-31
-32
-30
-30
-26
-30
-29
-28
-31
-31
-32
-35
-32
-33
-33
-30
-29
-31
-32
-32
-32
-34
-32
-31
-28
-32
-34
-31
-29
-29
-34
-33
-34
-34
-34
-38
-35
-35
-34
-34
-33
-32
-34
-38
-34
-32
-35
-35
-35
-33
-33
-33
-32
-30
-31
-30
-29
-34
-33
-30
-32
-33
-29
-30
-27
-31
-30
-27
-29
-27
-26
-23
-26
-24
-27
-26
-28
-29
-28
-26
-25
-27
-24
-22
-23
-25
-24
-24
-25
-23
-18
-17
-15
-14
-19
-19
-18
-18
-21
-24
-24
-24
-24
-22
-24
-27
-23
-25
-23
-23
-24
-22
-23
-25
-30
-31
-32
-28
-19
1
31
69
111
163
215
245
224
165
103
51
12
-9
-27
-33
-34
-37
-36
-30
-35
-33
-33
-30
-31
-25
-33
-28
-27
-29
-24
-21
-22
-21
-20
-19
-17
-14
-13
-11
-10
-6
-9
-6
-6
-6
-3
2
0
2
3
4
4
7
10
10
15
14
11
16
19
17
18
22
22
20
21
20
22
24
19
22
19
15
16
10
7
8
2
-5
-5
-9
-11
-12
-12
-20
-17
-20
-23
-24
-27
-24
-30
-25
-23
-25
-22
-25
-21
-21
-25
-20
-20
-19
-21
-21
-19
-21
-19
-18
-20
-21
-19
-18
-20
-17
-16
-15
-18
-16
-16
-18
-17
-17
-14
-18
-17
-14
-18
-11
-15
-15
-12
-11
-11
-8
-10
-8
-11
-10
-10
-9
-7
-10
-8
-7
-9
-9
-9
-8
-4
-6
-8
-6
-3
-6
-5
-7
-3
-4
-5
-4
1
1
4
5
6
4
7
2
-3
-5
-5
-4
-4
-4
-5
-4
-5
-4
-5
-3
-5
-4
-1
-3
-7
-13
-18
-13
-9
6
29
58
96
143
196
246
260
214
149
84
34
8
-12
-22
-29
-31
-29
-26
-25
-24
-25
-25
-24
-22
-22
-24
-24
-24
-22
-20
-19
-17
-17
-15
-14
-15
-12
-10
-8
-12
-9
-7
-4
-5
-4
-3
1
4
-1
4
6
4
5
8
8
8
8
10
16
16
17
18
20
18
20
17
20
20
20
17
17
19
11
7
6
4
-2
-4
-10
-13
-13
-16
-19
-25
-25
-28
-29
-29
-29
-30
-32
-34
-33
-32
-34
-33
-29
-29
-28
-28
-29
-27
-27
-28
-29
-26
-28
-28
-27
-26
-26
-26
-27
-29
-27
-26
-25
-26
-27
-25
-26
-26
-28
-27
-26
-25
-23
-24
-23
-21
-21
-23
-23
-20
-22
-17
-19
-17
-19
-17
-19
-14
-16
-17
-16
-13
-13
-16
-14
-15
-17
-16
-16
-15
-12
-13
-10
-15
-9
-9
-5
-7
-2
0
0
-3
-4
-7
-7
-8
-10
-7
-8
-10
-13
-11
-6
-8
-7
-9
-7
-9
-9
-14
-16
-22
-22
-17
-4
16
45
84
130
181
227
253
218
157
91
41
6
-14
-24
-29
-35
-36
-32
-31
-36
-36
-33
-33
-35
-31
-30
-31
-29
-26
-29
-27
-25
-22
-21
-21
-19
-17
-16
-13
-13
-14
-8
-8
-7
-6
-6
-3
-4
2
-2
2
3
6
8
6
7
8
10
13
13
16
16
14
16
15
13
14
11
15
13
13
12
7
4
-3
0
-7
-12
-12
-15
-18
-22
-25
-26
-30
-33
-34
-36
-35
-34
-36
-37
-35
-37
-34
-32
-35
-33
-29
-31
-32
-30
-31
-31
-30
-26
-31
-30
-29
-27
-28
-31
-31
-31
-30
-30
-30
-29
-29
-29
-29
-30
-29
-28
-29
-28
-29
-26
-30
-27
-25
-25
-24
-29
-22
-23
-22
-21
-21
-21
-19
-21
-18
-15
-19
-18
-21
-19
-15
-14
-16
-17
-16
-15
-14
-14
-15
-13
-10
-11
-8
-7
-8
-6
-5
-13
-13
-14
-16
-12
-13
-14
-16
-16
-14
-14
-15
-12
-13
-15
-10
-17
-24
-24
-28
-19
-6
13
44
84
130
183
228
240
207
145
77
32
2
-12
-24
-34
-33
-32
-34
-30
-33
-33
-30
-32
-34
-33
-32
-28
-30
-28
-27
-26
-22
-22
-21
-19
-19
-19
-17
-17
-14
-12
-15
-10
-10
-5
-2
-6
-2
2
0
6
7
8
7
9
9
9
11
12
11
16
15
16
15
21
16
15
15
16
12
13
8
6
3
0
1
-9
-12
-15
-16
-21
-23
-24
-26
-30
-33
-31
-35
-34
-35
-35
-35
-37
-34
-33
-35
-33
-32
-32
-28
-35
-32
-33
-27
-27
-29
-28
-35
-29
-28
-30
-28
-29
-32
-27
-30
-31
-33
-31
-28
-29
-29
-32
-29
-26
-29
-27
-30
-29
-26
-23
-27
-25
-27
-24
-27
-22
-27
-25
-27
-26
-22
-21
-25
-22
-20
-19
-20
-16
-18
-17
-15
-12
-10
-10
-7
-6
-5
-9
-13
-13
-12
-15
-17
-14
-15
-16
-14
-16
-14
-15
-14
-13
-13
-11
-17
-19
-21
-25
-25
-15
1
25
56
95
139
193
234
240
192
129
72
28
-1
-20
-29
-32
-34
-31
-33
-32
-33
-31
-30
-31
-33
-34
-29
-27
-27
-25
-22
-20
-23
-19
-17
-15
-18
-17
-13
-9
-13
-10
-8
-6
-6
-4
-3
3
2
1
1
3
8
5
6
9
12
11
11
14
14
15
17
15
15
16
19
17
15
10
12
14
12
7
4
1
-2
-5
-9
-9
-10
-17
-18
-22
-23
-26
-26
-28
-28
-33
-29
-30
-28
-29
-32
-31
-33
-28
-28
-25
-29
-27
-26
-24
-25
-26
-21
-27
-24
-25
-22
-24
-25
-23
-23
-22
-22
-20
-20
-21
-19
-16
-21
-22
-21
-21
-22
-20
-20
-18
-21
-25
-20
-19
-20
-21
-20
-20
-17
-20
-18
-15
-14
-13
-14
-10
-9
-10
-7
-7
-8
-5
-5
-7
-7
-9
-11
-9
-13
-14
-13
-12
-14
-12
-15
-17
-17
-17
-13
-12
-14
-20
-21
-27
-24
-15
0
23
53
94
140
192
233
239
195
132
74
26
-1
-12
-26
-30
-32
-30
-31
-30
-32
-30
-27
-28
-31
-26
-29
-24
-24
-24
-27
-24
-23
-23
-20
-21
-20
-16
-18
-14
-17
-13
-10
-13
-11
-6
-5
-5
-5
-4
3
3
2
7
7
9
12
15
13
11
14
14
11
12
13
12
13
13
11
10
8
5
6
1
2
0
-7
-9
-13
-19
-20
-25
-25
-28
-27
-30
-34
-32
-34
-31
-33
-35
-37
-36
-37
-34
-33
-32
-35
-31
-31
-26
-28
-29
-29
-31
-29
-26
-28
-28
-29
-28
-27
-29
-28
-27
-24
-28
-27
-26
-27
-28
-28
-27
-28
-29
-26
-28
-24
-27
-24
-25
-23
-22
-22
-25
-25
-25
-19
-23
-20
-21
-18
-19
-19
-17
-15
-16
-9
-11
-7
-9
-10
-12
-10
-13
-15
-18
-17
-16
-18
-17
-19
-21
-18
-19
-20
-17
-15
-17
-21
-22
-27
-31
-31
-22
-7
15
44
84
129
179
229
243
203
140
74
28
-3
-21
-33
-37
-38
-36
-40
-36
-37
-31
-34
-37
-33
-31
-29
-31
-30
-27
-24
-25
-23
-20
-22
-20
-19
-16
-13
-15
-17
-12
-11
-11
-8
-7
-9
-4
2
-2
-2
-3
-3
-2
7
5
3
6
8
10
11
13
10
13
13
15
11
11
9
10
10
12
8
3
4
-2
-5
-7
-12
-12
-17
-19
-21
-23
-25
-28
-30
-28
-32
-34
-33
-32
-32
-33
-33
-32
-29
-30
-29
-29
-33
-30
-28
-29
-28
-28
-26
-30
-28
-29
-29
-27
-29
-27
-31
-29
-27
-29
-28
-29
-31
-27
-27
-28
-28
-27
-26
-28
-26
-26
-23
-22
-22
-25
-22
-20
-20
-22
-20
-21
-21
-17
-21
-17
-19
-16
-16
-18
-14
-13
-14
-10
-13
-8
-9
-8
-8
-4
-5
-3
-8
-7
-13
-10
-6
-13
-11
-9
-12
-9
-7
-8
-12
-10
-9
-9
-7
-10
-13
-16
-19
-23
-16
2
21
52
92
136
192
242
264
222
151
84
36
5
-19
-27
-31
-37
-34
-33
-34
-29
-29
-27
-29
-29
-27
-24
-22
-23
-22
-24
-19
-16
-15
-13
-14
-13
-12
-9
-6
-4
-7
-5
-1
2
3
2
5
9
6
7
9
10
10
10
10
9
15
11
15
18
14
17
18
19
15
18
17
15
16
18
12
10
10
8
7
3
0
-5
-6
-10
-16
-19
-21
-22
-24
-26
-24
-26
-23
-26
-27
-29
-24
-29
-28
-28
-27
-24
-23
-24
-23
-29
-23
-22
-23
-22
-23
-24
-24
-24
-22
-25
-25
-22
-23
-21
-23
-25
-19
-20
-21
-20
-23
-21
-21
-21
-19
-19
-17
-19
-16
-15
-18
-18
-20
-19
-18
-16
-18
-16
-18
-16
-15
-12
-13
-14
-14
-15
-12
-11
-12
-10
-9
-9
-8
-11
-13
-9
-7
-4
-4
-3
1
-1
3
2
-5
-4
-7
-10
-9
-11
-9
-10
-7
-8
-9
-7
-7
-7
-7
-6
-9
-14
-16
-21
-17
-6
14
42
73
117
170
225
258
240
182
111
58
15
-10
-23
-31
-30
-35
-31
-29
-28
-30
-30
-28
-29
-28
-33
-28
-28
-24
-24
-25
-22
-21
-20
-21
-21
-16
-16
-14
-13
-9
-12
-10
-7
-7
-5
-5
-5
-5
4
5
8
6
4
6
5
7
8
8
11
11
8
8
8
8
9
9
10
8
11
7
6
2
3
1
-5
-7
-9
-12
-17
-20
-21
-24
-23
-28
-29
-30
-30
-31
-29
-27
-30
-31
-32
-29
-30
-34
-28
-28
-29
-27
-29
-29
-27
-27
-28
-32
-30
-29
-28
-26
-26
-27
-28
-31
-29
-27
-25
-25
-24
-25
-25
-24
-25
-24
-24
-27
-22
-21
-24
-20
-24
-23
-24
-24
-20
-22
-21
-20
-21
-20
-23
-24
-21
-22
-20
-20
-20
-17
-19
-20
-18
-20
-19
-16
-17
-20
-18
-17
-17
-18
-18
-18
-14
-13
-10
-17
-12
-13
-10
-11
-7
-6
-2
-4
-4
-6
-5
-8
-9
-8
-12
-6
-11
-8
-8
-10
-11
-8
-10
-6
-7
-8
-10
-14
-20
-19
-18
-9
12
33
70
112
162
212
252
235
180
113
55
19
-8
-19
-27
-29
-29
-30
-31
-32
-29
-32
-30
-28
-30
-29
-26
-27
-26
-28
-26
-27
-22
-25
-23
-22
-19
-17
-14
-13
-13
-13
-13
-11
-10
-9
-10
-6
-4
-4
0
2
2
5
4
7
7
8
9
8
7
11
13
7
16
12
13
11
8
7
10
6
6
6
1
-5
-4
-10
-13
-15
-17
-20
-22
-22
-25
-28
-28
-32
-32
-34
-33
-32
-32
-32
-33
-33
-31
-30
-30
-31
-32
-29
-29
-26
-27
-26
-25
-28
-28
-27
-26
-27
-29
-26
-25
-26
-24
-25
-24
-24
-25
-24
-25
-26
-26
-23
-26
-24
-26
-23
-25
-25
-25
-25
-25
-22
-24
-25
-24
-24
-25
-27
-20
-22
-23
-22
-21
-25
-23
-23
-20
-21
-18
-17
-19
-19
-16
-16
-15
-16
-16
-8
-13
-17
-17
-11
-15
-12
-11
-12
-10
-8
-10
-10
-11
-10
-9
-8
-9
-9
-8
-7
-7
-7
-5
-4
-1
3
2
4
1
1
-3
-7
-6
-4
-6
-6
-1
-2
2
-2
-2
-3
-2
1
-4
-4
-6
-13
-15
-9
-1
12
36
69
111
157
209
248
243
186
125
67
27
1
-16
-22
-29
-31
-26
-32
-30
-30
-30
-30
-33
-28
-27
-28
-31
-22
-28
-23
-25
-21
-21
-16
-16
-17
-15
-12
-11
-15
-15
-13
-11
-10
-8
-9
-6
-4
-4
-3
-3
1
2
1
4
4
4
8
5
6
6
6
8
8
9
12
7
6
5
5
6
4
1
-2
-2
-7
-8
-13
-16
-18
-20
-25
-24
-29
-29
-30
-33
-31
-33
-30
-33
-34
-30
-30
-30
-32
-33
-29
-32
-29
-29
-29
-30
-24
-28
-31
-29
-27
-29
-27
-28
-29
-28
-28
-25
-26
-29
-27
-28
-30
-27
-28
-25
-26
-27
-27
-24
-28
-25
-21
-25
-23
-25
-22
-23
-21
-20
-22
-18
-21
-21
-20
-21
-21
-23
-20
-18
-21
-20
-20
-18
-16
-18
-17
-17
-15
-16
-18
-17
-13
-16
-12
-15
-14
-11
-14
-13
-12
-13
-15
-10
-15
-11
-15
-14
-13
-12
-10
-13
-14
-11
-11
-12
-7
-11
-9
-7
-10
-8
-7
-4
0
1
5
7
7
7
3
-3
1
-5
-4
-10
-9
-9
-8
-8
-10
-9
-6
-9
-9
-5
-8
-9
-15
-16
-20
-16
-7
12
35
71
110
160
211
246
240
185
120
63
26
2
-14
-24
-26
-29
-29
-28
-29
-29
-31
-30
-31
-28
-29
-28
-27
-27
-23
-25
-23
-24
-21
-19
-20
-17
-17
-17
-15
-14
-14
-12
-15
-11
-7
-7
0
-4
-4
-2
-2
0
1
-1
1
1
6
4
5
8
10
8
10
10
9
9
5
10
9
5
5
3
-3
2
-6
-8
-10
-13
-14
-15
-18
-18
-25
-26
-24
-25
-26
-28
-30
-28
-28
-31
-28
-28
-26
-24
-22
-23
-22
-24
-24
-22
-24
-22
-20
-19
-19
-21
-24
-22
-24
-20
-20
-24
-23
-19
-22
-25
-25
-20
-23
-24
-23
-21
-22
-22
-24
-21
-21
-23
-18
-22
-20
-22
-19
-17
-18
