# ASI test file format
# {"c261c5a084f8c6b6":{"device ID": "c261c5a084f8c6b6","comments": " 5 minutes  in supine decubitus position. After waking up. ","keywords": "HRV, Rest","firmware version": "0.6.3","device": "FieldWiz + T-shirt version 2","sampling rate": 250,"resolution": [16-bit],"date":"2020-04-17","column": ["ECG", "A1"],"sensor": ["RAW, ECG"],"label": ["ECG"]}
}
# EndOfHeader
-12
-10
-14
-11
-11
-10
-9
-13
-9
-13
-11
-12
-9
-7
-8
-13
-10
-9
-11
-13
-10
-13
-8
-13
-10
-13
-11
-10
-13
-13
-10
-11
-10
-12
-12
-13
-8
-11
-8
-13
-9
-13
-12
-7
-12
-8
-11
-9
-17
-8
-13
-9
-13
-8
-6
-15
-7
-14
-8
-12
-10
-10
-8
-8
-11
-13
-15
-13
-15
-14
-17
-14
-10
-9
-8
-8
-8
-8
-9
-13
-9
-11
-9
-12
-15
-8
-14
-8
-15
-8
-14
-14
-7
-8
-8
-12
-7
-12
-9
-8
-13
-8
-13
-11
-12
-7
-13
-10
-9
-9
-12
-10
-13
-9
-12
-12
-8
-13
-10
-13
-13
-14
-11
-12
-11
-8
-11
-7
-15
-10
-13
-11
-10
-13
-13
-11
-11
-9
-6
-7
-8
-10
-12
-9
-13
-9
-12
-12
-12
-10
-11
-10
-10
-10
-14
-11
-10
-11
-10
-12
-11
-11
-10
-13
-8
-10
-11
-10
-13
-9
-10
-13
-8
-12
-8
-14
-10
-11
-13
-10
-10
-13
-6
-8
-10
-8
-12
-8
-8
-12
-11
-12
-13
-18
-17
-19
-15
-13
-11
-13
-10
-14
-10
-13
-10
-8
-11
-8
-11
-11
-10
-9
-12
-11
-9
-3
-10
-6
-12
-10
-12
-11
-15
-15
-12
-10
-10
-8
-5
-6
-7
-8
-9
-13
-13
-12
-10
-8
-15
-20
-20
-15
-15
-15
-12
-15
-12
-10
-9
-7
-14
-11
-10
-11
-9
-11
-13
-10
-11
-10
-14
-11
-12
-5
-10
-15
-9
-12
-13
-13
-10
-13
-12
-13
-15
-12
-13
-11
-8
-6
-7
-8
-11
-12
-19
-25
-21
-16
-16
-12
-11
-11
-11
-13
-11
-10
-13
-7
-8
-11
-13
-9
-8
-10
-11
-13
-10
-10
-11
-9
-10
-10
-5
-11
-13
-7
-9
-12
-6
-11
-9
-10
-10
-6
-9
-10
-11
-12
-9
-13
-17
-25
-20
-21
-13
-13
-13
-15
-10
-7
-9
-7
-9
-8
-8
-8
-8
-6
-8
-8
-8
-7
-6
-8
-7
-7
-8
-8
-11
-13
-14
-14
-9
-12
-9
-13
-9
-8
-7
-6
-8
-8
-8
-9
-11
-14
-21
-22
-22
-15
-15
-12
-7
-5
-4
-8
-8
-7
-8
-8
-10
-10
-10
-8
-8
-11
-9
-10
-7
-9
-6
-8
-8
-7
-4
-8
-8
-9
-9
-10
-8
-11
-8
-12
-11
-10
-11
-11
-7
-11
-10
-14
-29
-35
-32
-22
-20
-15
-13
-12
-13
-11
-10
-8
-12
-8
-9
-7
-11
-8
-11
-10
-10
-7
-11
-5
-11
-7
-10
-6
-10
-10
-12
-10
-12
-9
-12
-10
-8
-10
-12
-10
-7
-9
-12
-10
-9
-13
-17
-24
-34
-37
-29
-21
-15
-15
-12
-13
-9
-8
-9
-8
-7
-9
-9
-9
-10
-10
-7
-6
-8
-9
-7
-8
-8
-9
-11
-11
-11
-9
-9
-9
-9
-11
-9
-10
-8
-6
-6
-7
-12
-10
-12
-13
-10
-15
-24
-44
-44
-38
-29
-22
-16
-13
-9
-11
-13
-11
-11
-15
-13
-13
-11
-9
-7
-4
-6
-4
-5
-4
-10
-9
-13
-8
-11
-10
-8
-6
-7
-8
-10
-11
-8
-13
-11
-12
-8
-8
-4
-9
-9
-10
-12
-18
-28
-49
-55
-45
-34
-24
-18
-15
-11
-9
-9
-8
-8
-7
-8
-9
-9
-9
-8
-7
-8
-9
-9
-10
-7
-9
-9
-7
-7
-5
-8
-2
-7
-6
-8
-6
-8
-10
-7
-7
-7
-7
-6
-9
-9
-10
-12
-15
-30
-46
-60
-58
-46
-34
-23
-17
-13
-11
-9
-8
-9
-6
-7
-6
-9
-7
-8
-8
-9
-9
-6
-6
-5
-7
-7
-11
-11
-10
-7
-7
-11
-9
-6
-11
-11
-7
-11
-10
-9
-9
-8
-12
-8
-13
-8
-14
-18
-31
-47
-65
-76
-66
-48
-35
-24
-18
-13
-10
-8
-8
-5
-5
-9
-4
-6
-5
-7
-10
-6
-9
-11
-10
-8
-11
-8
-5
-3
-4
-7
-2
-6
-9
-11
-6
-7
-6
-5
-9
-13
-5
-8
-9
-10
-8
-8
-12
-18
-32
-53
-70
-81
-68
-51
-35
-24
-17
-14
-12
-9
-7
-6
-7
-7
-7
-6
-8
-6
-5
-7
-8
-7
-9
-8
-10
-7
-5
-5
-8
-8
-9
-9
-9
-9
-10
-13
-11
-11
-8
-9
-11
-8
-10
-8
-9
-9
-13
-19
-36
-52
-70
-83
-89
-73
-50
-37
-21
-15
-12
-9
-7
-9
-5
-5
-4
-6
-6
-6
-5
-4
-7
-6
-5
-2
-6
-7
-4
-9
-8
-11
-9
-9
-7
-6
-8
-8
-10
-12
-12
-7
-10
-9
-7
-7
-9
-6
-12
-12
-22
-36
-56
-71
-86
-78
-63
-42
-28
-22
-16
-11
-9
-8
-7
-7
-6
-5
-4
-8
-5
-4
-6
-5
-6
-6
-7
-7
-8
-4
-8
-10
-5
-7
-6
-9
-7
-4
-2
-3
-6
-8
-9
-9
-10
-7
-8
-9
-9
-11
-18
-28
-41
-55
-68
-87
-103
-100
-81
-51
-37
-24
-17
-13
-6
-9
-5
-5
-3
-5
-4
-2
-5
-4
-3
-6
-5
-5
-8
-4
-4
0
-4
-6
-5
-5
-6
-7
-6
-4
-9
-13
-11
-13
-11
-8
-8
-7
-7
-8
-8
-10
-11
-21
-28
-38
-54
-68
-81
-97
-108
-111
-93
-62
-45
-26
-17
-10
-6
-7
-3
-5
-2
0
-3
-4
-1
-1
-3
-4
-3
1
-2
2
-1
-5
-4
-2
-4
-2
-4
-5
-4
-9
-9
-10
-9
-10
-9
-10
-7
-2
-5
-8
-9
-10
-13
-17
-20
-31
-49
-64
-78
-88
-103
-115
-99
-77
-52
-33
-20
-12
-8
-4
-6
-2
-2
0
1
-1
1
1
-3
0
-5
-5
-3
-6
-5
-4
-4
-5
-9
-9
-7
-1
-3
-3
-4
-7
-12
-14
-11
-7
-10
-10
-6
-6
-5
-9
-7
-10
-22
-32
-43
-54
-71
-80
-93
-106
-120
-129
-135
-107
-77
-49
-29
-19
-8
-7
1
0
0
4
3
2
2
1
3
4
4
2
-1
1
5
1
-1
1
2
-1
-3
-3
-4
-5
-6
-5
-7
-5
-4
-5
-3
-5
-11
-9
-8
-11
-9
-6
-10
-16
-26
-37
-48
-51
-65
-72
-88
-96
-108
-115
-126
-132
-139
-140
-115
-81
-49
-29
-14
-7
0
4
5
8
5
7
9
6
7
8
7
5
6
8
4
4
5
5
8
4
6
5
4
-1
2
-5
-3
-3
-7
-5
-7
-5
-9
-6
-2
-9
-9
-8
-9
-13
-24
-35
-43
-53
-63
-74
-85
-98
-107
-115
-127
-136
-145
-145
-135
-101
-67
-40
-21
-12
0
5
7
7
8
7
7
7
9
8
8
7
8
8
8
8
6
7
6
3
7
6
3
3
-5
-5
-8
-6
1
0
-2
2
2
-5
-5
-3
-2
-6
-9
-9
-16
-25
-34
-39
-49
-63
-74
-82
-90
-98
-108
-118
-126
-131
-137
-148
-146
-151
-137
-98
-62
-33
-17
-6
1
5
9
12
12
13
12
11
12
13
11
12
13
11
12
12
12
10
8
7
8
5
3
1
-2
6
3
1
-1
-5
0
-2
-2
-7
-5
-5
-5
-5
-7
-8
-12
-21
-29
-37
-42
-50
-61
-74
-80
-86
-92
-101
-109
-115
-124
-133
-137
-146
-150
-153
-152
-155
-154
-125
-84
-50
-23
-8
5
10
14
16
16
17
16
19
20
16
16
17
19
15
15
16
20
15
11
14
14
9
5
9
6
9
4
2
-1
1
-2
-5
-3
0
-2
-4
-5
-7
-7
-7
-8
-12
-18
-24
-34
-41
-46
-54
-64
-74
-78
-87
-96
-105
-108
-118
-123
-126
-136
-145
-152
-159
-160
-161
-161
-161
-161
-163
-144
-101
-60
-29
-6
9
16
19
22
23
26
26
28
24
24
21
24
19
21
19
17
21
24
25
23
20
16
15
14
9
10
8
4
6
2
5
1
-5
0
-4
-3
-3
-2
-5
-5
-10
-13
-21
-27
-38
-42
-44
-54
-61
-69
-76
-83
-92
-93
-102
-104
-115
-119
-123
-127
-131
-138
-144
-150
-148
-159
-161
-163
-163
-169
-159
-119
-72
-40
-15
6
14
20
24
28
28
28
30
27
25
25
29
27
29
22
25
27
28
30
20
20
21
16
11
13
10
7
3
3
3
2
1
3
5
4
-3
0
-5
-5
-3
-9
-12
-12
-19
-25
-32
-41
-45
-53
-52
-62
-68
-74
-81
-85
-90
-96
-100
-102
-108
-109
-116
-117
-125
-126
-128
-137
-138
-138
-140
-143
-152
-150
-154
-156
-159
-160
-166
-164
-164
-166
-167
-173
-167
-171
-171
-163
-117
-65
-27
6
23
38
40
43
47
46
46
48
46
43
45
46
43
43
42
44
39
40
41
39
40
34
31
27
28
23
15
15
16
15
11
6
6
8
7
6
1
3
-2
1
2
-4
0
-7
-13
-17
-23
-29
-29
-30
-31
-30
-32
-41
-61
-85
-112
-138
-130
-94
-61
-36
-17
-7
1
5
5
8
8
12
8
8
8
6
5
7
8
7
7
4
7
5
7
2
5
0
3
2
-3
-1
4
-3
0
-1
-9
-4
-2
-6
-8
-4
-3
-6
-9
-7
-17
-24
-26
-35
-34
-44
-49
-54
-58
-65
-67
-73
-75
-80
-87
-86
-91
-96
-95
-99
-102
-105
-105
-102
-105
-103
-104
-106
-105
-108
-108
-107
-111
-106
-113
-115
-113
-116
-118
-116
-120
-122
-122
-122
-119
-124
-125
-131
-128
-130
-127
-131
-128
-124
-120
-121
-120
-126
-126
-126
-129
-130
-133
-133
-133
-135
-132
-137
-135
-136
-136
-136
-135
-134
-135
-137
-134
-133
-131
-132
-129
-131
-133
-131
-133
-128
-128
-131
-130
-128
-129
-129
-126
-125
-123
-122
-124
-124
-122
-120
-121
-121
-120
-118
-117
-120
-119
-118
-118
-115
-116
-117
-117
-112
-113
-113
-110
-111
-108
-106
-104
-104
-108
-105
-100
-102
-103
-102
-98
-98
-96
-97
-97
-98
-94
-96
-97
-97
-97
-93
-93
-92
-89
-80
-83
-83
-78
-76
-75
-75
-70
-72
-71
-70
-69
-65
-65
-58
-48
-42
-43
-50
-60
-54
-12
34
75
102
121
135
144
141
146
144
144
141
138
138
135
133
131
131
130
124
128
123
119
119
108
101
96
87
79
74
68
62
54
47
48
38
38
34
32
32
26
26
24
18
17
17
11
10
6
1
0
-4
-7
-8
-9
-13
-14
-16
-21
-24
-25
-27
-30
-34
-32
-32
-37
-38
-37
-36
-34
-35
-37
-36
-33
-29
-33
-28
-31
-34
-31
-32
-36
-34
-35
-35
-34
-35
-37
-32
-34
-35
-41
-39
-39
-38
-36
-43
-43
-41
-40
-45
-46
-45
-43
-43
-43
-46
-46
-43
-43
-45
-43
-44
-43
-43
-46
-45
-46
-46
-44
-45
-49
-46
-46
-44
-47
-49
-49
-48
-44
-45
-44
-45
-41
-40
-43
-45
-47
-46
-52
-54
-51
-50
-46
-43
-43
-43
-41
-40
-40
-37
-40
-38
-36
-39
-39
-41
-43
-42
-40
-41
-39
-42
-39
-38
-40
-42
-42
-39
-37
-40
-40
-41
-38
-40
-39
-43
-40
-42
-38
-41
-43
-45
-44
-40
-43
-41
-38
-37
-34
-32
-32
-31
-30
-32
-31
-32
-31
-30
-29
-26
-21
-14
-9
-4
-11
-19
-39
-63
-89
-119
-144
-155
-149
-123
-92
-67
-46
-31
-26
-17
-17
-17
-16
-11
-11
-11
-10
-10
-8
-8
-10
-11
-7
-5
-9
-9
-8
-5
-6
-5
-6
-6
-6
-5
-6
-9
-10
-5
-6
-7
-9
-10
-10
-9
-6
-16
-11
-13
-10
-16
-18
-18
-16
-16
-14
-16
-18
-19
-16
-15
-16
-21
-15
-14
-15
-14
-7
-6
-4
-3
-3
1
2
8
8
8
13
13
9
14
18
17
15
17
17
19
18
18
21
17
16
16
18
19
17
16
17
18
20
21
17
17
17
19
18
17
17
19
20
21
18
15
19
20
22
24
19
17
20
19
20
21
18
19
22
21
21
19
20
24
19
18
18
19
19
16
19
17
20
18
18
19
20
21
15
21
17
20
20
17
16
17
17
19
17
15
20
17
19
18
16
16
19
18
11
14
10
12
9
9
12
10
13
16
14
14
18
22
29
25
24
24
22
22
19
20
19
30
32
35
33
23
14
-9
-32
-67
-92
-106
-111
-99
-71
-43
-18
3
13
20
25
24
30
32
30
27
28
28
32
28
23
25
27
26
23
23
23
27
23
19
23
24
21
24
18
17
15
18
16
14
16
14
15
10
14
9
10
8
7
7
2
1
4
0
-3
-5
-7
-9
-5
-8
-8
-6
-7
-3
0
2
4
4
6
5
8
11
12
14
13
17
15
21
21
19
19
24
24
24
22
20
23
23
21
21
17
20
18
21
18
20
20
22
22
17
19
17
19
18
17
16
17
17
18
16
18
20
17
17
20
17
20
19
18
18
13
18
19
20
17
16
17
18
17
12
11
16
15
15
14
10
13
13
13
13
12
14
12
15
12
10
12
12
10
8
7
8
9
8
7
8
9
7
7
9
5
7
5
7
5
3
2
2
-2
-3
-5
-5
-5
-4
2
0
3
4
5
8
5
6
6
9
5
8
8
9
7
12
15
23
22
21
11
-1
-18
-46
-73
-102
-124
-131
-119
-94
-64
-38
-18
-4
8
7
12
16
15
17
11
11
16
15
16
16
12
14
16
15
13
11
14
16
14
13
10
6
3
3
2
3
1
4
2
3
1
3
4
4
-1
-2
2
-2
-2
-6
-10
-8
-8
-12
-9
-12
-12
-12
-14
-16
-17
-15
-13
-12
-12
-11
-9
-3
-4
-3
4
3
7
7
11
9
12
12
11
14
14
14
18
17
13
11
13
15
13
12
12
14
14
13
14
12
11
14
11
10
8
11
10
14
11
9
11
11
12
9
8
7
9
9
8
8
6
9
10
7
7
3
6
3
2
3
2
8
8
1
-3
3
4
3
0
1
2
3
4
-1
-1
2
3
1
2
1
2
1
0
-1
0
-3
-7
-2
-6
-4
-3
-3
0
0
-5
-5
0
-7
-8
-8
-10
-11
-13
-12
-18
-14
-18
-19
-18
-18
-17
-11
-8
-11
-10
-12
-11
-9
-9
-10
-10
-13
-9
-8
-9
-9
-2
7
5
6
-5
-15
-35
-62
-89
-117
-136
-142
-130
-104
-73
-48
-31
-19
-8
0
3
3
3
3
6
9
12
8
6
5
5
8
5
3
5
6
5
2
3
2
5
4
4
-4
0
-4
-5
-7
-6
-13
-10
-9
-15
-17
-18
-18
-18
-16
-19
-18
-17
-16
-19
-21
-20
-21
-21
-20
-24
-22
-20
-23
-20
-23
-19
-16
-14
-14
-13
-6
-2
0
1
0
5
7
5
9
7
12
19
20
16
16
14
11
11
9
11
12
11
10
9
10
9
10
11
10
7
12
10
12
11
9
11
12
14
11
8
9
14
10
12
11
8
10
16
8
7
6
6
5
5
4
7
8
5
9
3
6
8
7
4
7
6
9
10
8
7
7
11
6
1
5
2
4
3
3
3
2
4
3
7
3
5
5
0
4
0
5
2
2
8
5
4
8
7
9
9
7
11
14
9
15
15
18
16
17
17
15
22
20
19
22
20
20
18
16
15
17
16
20
17
21
21
24
24
25
26
26
25
27
27
27
26
26
30
28
33
38
42
45
44
34
22
6
-20
-50
-72
-89
-99
-80
-57
-25
-5
20
32
40
44
43
43
42
44
45
45
45
44
44
40
42
42
45
42
41
41
40
37
38
35
36
33
35
32
30
32
28
29
25
27
24
23
22
24
17
20
19
15
17
15
16
13
11
11
9
8
8
4
7
6
1
3
-1
2
1
5
5
11
10
11
13
16
16
19
21
18
20
22
24
22
25
22
23
20
24
22
23
21
19
18
20
17
18
17
16
15
16
15
11
11
9
11
6
11
10
10
8
6
8
5
8
5
4
4
1
3
5
3
2
4
4
3
-1
-1
-5
-1
-5
0
-5
1
-5
0
-6
-6
-6
-7
-11
-9
-9
-9
-9
-8
-9
-10
-10
-11
-12
-8
-13
-13
-12
-13
-12
-12
-13
-16
-16
-16
-16
-17
-19
-18
-16
-19
-15
-15
-15
-17
-15
-17
-15
-18
-15
-12
-17
-14
-14
-18
-20
-18
-21
-24
-21
-24
-23
-22
-25
-25
-23
-26
-27
-28
-28
-30
-32
-27
-27
-31
-25
-24
-26
-26
-25
-26
-26
-29
-27
-23
-25
-26
-22
-17
-17
-9
-9
-10
-22
-37
-59
-84
-113
-141
-155
-159
-138
-104
-78
-53
-35
-22
-18
-16
-18
-19
-14
-14
-12
-14
-16
-14
-12
-13
-14
-15
-15
-12
-11
-14
-14
-12
-18
-18
-16
-17
-18
-18
-20
-23
-24
-24
-24
-23
-26
-29
-24
-25
-24
-25
-30
-29
-30
-33
-33
-37
-33
-33
-35
-35
-38
-37
-37
-38
-38
-40
-38
-35
-30
-36
-32
-28
-25
-24
-23
-19
-20
-14
-17
-15
-15
-11
-11
-11
-7
-9
-8
-5
-7
-4
-6
-4
-6
-3
-5
-6
-9
-9
-8
-8
-11
-13
-9
-9
-10
-13
-10
-8
-10
-10
-9
-9
-10
-13
-10
-9
-12
-10
-14
-10
-8
-10
-13
-8
-13
-10
-11
-13
-13
-13
-11
-14
-13
-12
-14
-12
-13
-12
-13
-12
-12
-15
-11
-13
-17
-14
-11
-10
-12
-14
-13
-12
-11
-15
-12
-15
-14
-14
-13
-14
-14
-13
-12
-13
-13
-12
-17
-11
-12
-15
-14
-16
-16
-15
-17
-17
-19
-16
-21
-19
-25
-24
-25
-19
-17
-21
-16
-16
-12
-14
-14
-12
-17
-14
-12
-12
-13
-15
-13
-13
-9
-8
3
3
4
-6
-25
-43
-64
-91
-119
-140
-148
-132
-105
-77
-50
-30
-19
-10
-7
-5
0
3
4
2
-2
5
3
2
4
3
4
2
3
0
2
0
1
2
1
-4
-2
-2
-2
-5
-3
-6
-3
-7
-8
-6
-10
-10
-13
-11
-12
-17
-17
-16
-20
-18
-16
-20
-22
-23
-25
-25
-26
-26
-24
-25
-27
-26
-23
-20
-22
-19
-15
-13
-11
-9
-9
-6
-3
0
0
5
5
6
6
8
9
8
5
10
3
10
11
5
8
7
7
4
9
6
9
4
5
7
5
6
4
3
3
2
4
3
0
1
-2
0
-1
0
1
-5
1
-4
-3
-2
-4
-3
-2
-3
3
0
1
1
-5
-1
-1
-2
-3
-1
-3
0
-1
-2
-3
-3
-3
-5
-1
-3
-5
-2
-3
0
-3
1
-4
-5
-3
1
-4
-4
-5
-3
-5
-6
-4
1
-4
-2
-3
-5
-2
0
1
-1
0
2
-1
-2
-3
2
-2
-3
-1
-5
-7
-8
-11
-10
-12
-9
-9
-7
0
-3
-4
-2
-5
1
-1
0
-2
1
1
-3
0
4
8
15
17
22
16
7
-9
-25
-56
-83
-110
-128
-134
-117
-90
-65
-34
-18
-7
2
10
10
11
13
15
16
15
18
15
17
17
15
16
15
12
16
12
12
14
11
11
9
10
5
10
6
6
7
3
2
2
-3
-2
-4
-4
0
-3
-6
-8
-8
-8
-11
-9
-12
-15
-16
-18
-21
-18
-23
-20
-19
-19
-22
-20
-18
-21
-14
-10
-12
-10
-9
-6
0
1
5
4
6
9
7
11
13
14
13
11
14
11
13
9
11
11
11
10
10
9
11
11
7
6
9
7
6
6
7
5
5
6
3
5
5
3
5
4
3
4
3
3
3
0
2
-3
1
1
4
0
1
2
2
1
-1
1
0
0
0
-4
-4
1
-1
1
1
2
-1
-3
-2
-2
3
-5
-4
-6
-2
-4
-6
-2
-2
-5
-4
-2
-3
-3
-5
-6
-5
-7
-9
-6
-5
-9
-5
-5
-9
-10
-6
-6
-6
-6
-5
-9
-5
-7
-10
-6
-10
-11
-11
-10
-13
-10
-13
-13
-12
-13
-12
-15
-13
-13
-11
-8
-8
-8
-8
-6
-6
-6
-5
-8
-9
-8
-7
-9
-8
-6
-2
1
9
9
-1
-5
-21
-40
-72
-98
-122
-141
-141
-121
-94
-66
-45
-21
-14
-4
1
3
4
10
9
9
11
5
9
12
7
6
7
6
5
7
8
2
6
5
6
3
0
2
-5
-3
0
-3
-5
-6
-7
-6
-6
-9
-6
-13
-9
-11
-13
-11
-12
-16
-14
-14
-18
-15
-19
-19
-20
-20
-20
-23
-20
-18
-18
-17
-12
-16
-11
-9
-6
-5
-5
0
-1
4
9
8
9
11
12
9
12
11
10
12
11
9
10
8
7
11
8
9
11
13
11
14
14
13
11
11
9
10
7
9
8
7
6
8
4
6
4
3
2
6
5
-1
4
2
3
1
2
3
3
4
2
-3
-3
2
-1
1
2
-1
0
-3
0
-3
4
-3
1
5
2
-1
6
2
3
2
1
0
-2
0
0
0
-1
1
-5
3
-2
0
-3
-4
-5
-7
-4
-1
-2
-2
-6
-4
-4
-9
-9
-9
-6
-9
-9
-9
-9
-6
-9
-13
-10
-11
-8
-7
-11
-8
-11
-11
-11
-11
-13
-10
-15
-15
-15
-16
-18
-21
-19
-17
-15
-15
-15
-13
-10
-10
-10
-11
-8
-8
-9
-8
-9
-11
-10
-6
-3
2
5
11
12
2
-12
-29
-56
-85
-114
-138
-145
-134
-105
-77
-46
-24
-15
-7
2
2
1
2
2
4
7
6
7
6
5
4
6
4
5
3
2
1
1
-1
1
-2
-4
-3
-5
-7
-7
-10
-10
-14
-12
-11
-14
-13
-17
-16
-19
-19
-16
-14
-14
-18
-21
-22
-25
-24
-26
-27
-26
-28
-30
-32
-31
-30
-29
-28
-26
-26
-25
-19
-21
-17
-12
-7
-1
-5
-1
0
3
5
6
9
10
8
9
10
9
10
16
11
11
7
7
9
10
7
9
9
9
9
6
5
7
6
5
5
5
4
6
1
4
5
3
1
3
3
7
6
6
4
8
4
-1
6
6
3
4
3
-1
4
6
4
2
3
2
4
4
4
6
3
3
5
7
7
5
7
4
6
2
4
6
1
4
1
2
3
4
5
4
5
4
3
2
0
1
4
-2
3
1
4
-2
4
2
4
-1
3
-2
-1
-3
2
-8
-8
-10
-10
-14
-15
-10
-11
-10
-7
-11
-7
-7
-4
-5
-4
-7
-6
-6
-5
0
-6
-6
-2
4
8
12
15
13
5
-11
-32
-55
-87
-111
-134
-134
-124
-97
-68
-41
-22
-10
-3
1
4
8
8
7
5
8
6
8
7
4
7
4
5
7
6
5
3
1
3
1
1
3
3
2
2
-3
-4
-2
-8
-9
-7
-9
-8
-13
-9
-13
-13
-14
-14
-19
-17
-17
-17
-20
-20
-24
-22
-24
-26
-26
-26
-26
-27
-23
-27
-21
-22
-20
-15
-11
-11
-10
-7
-5
-2
3
2
5
3
6
7
11
12
7
9
11
3
8
10
8
7
8
5
4
6
4
5
7
4
6
5
4
10
7
3
2
-1
4
6
3
4
3
5
3
3
3
3
4
4
6
3
4
3
6
6
4
3
4
2
5
0
5
3
4
4
-1
-2
-3
-3
-2
-2
-4
-5
-2
-4
-6
-2
-5
-5
-4
-4
-6
-4
-4
-5
-4
-3
-7
-4
-5
-4
0
-4
-6
-4
-5
-8
-3
-5
-4
-5
-5
-5
-10
-6
-6
-8
-6
-10
-5
-4
-5
-4
-7
-6
-7
-5
-8
-9
-7
-9
-11
-8
-10
-13
-12
-15
-13
-17
-18
-16
-14
-13
-14
-8
-13
-11
-10
-11
-8
-11
-9
-8
-8
-5
-5
-6
3
7
9
15
12
-1
-18
-37
-66
-95
-121
-139
-141
-122
-93
-68
-40
-24
-8
1
4
8
10
12
12
16
13
15
14
16
15
12
11
12
8
9
9
6
7
6
6
6
5
6
1
2
1
1
0
0
3
-6
-4
-5
-5
-3
-4
-6
-7
-8
-8
-10
-15
-17
-16
-17
-23
-18
-20
-26
-24
-24
-25
-25
-24
-20
-24
-20
-16
-14
-13
-13
-10
-9
-4
-2
0
4
6
3
8
7
10
8
8
6
7
9
5
8
11
10
7
8
8
10
8
6
7
6
7
8
6
7
7
6
6
3
4
8
6
6
9
5
6
6
4
4
5
4
4
-2
1
3
-1
3
2
5
3
4
2
2
2
-3
0
2
-1
1
-3
2
2
2
1
0
-3
1
-3
-3
2
1
0
-3
1
-1
4
0
2
-3
-5
1
3
0
-2
-1
0
-5
-6
-2
-3
-3
-5
-3
-5
0
-3
-6
-4
-7
-5
-5
-4
-7
-4
-4
-4
-5
-3
-3
-4
-4
-4
-7
-6
-4
-5
-7
-7
-5
-6
-9
-10
-11
-11
-14
-12
-8
-13
-13
-9
-5
-1
-7
-6
-3
-3
-3
-5
-5
-5
-2
-1
-1
1
2
9
11
18
16
4
-8
-27
-50
-81
-108
-130
-139
-128
-106
-75
-47
-27
-11
-6
0
6
4
10
5
9
8
9
8
11
11
9
8
3
5
4
4
4
4
1
0
-4
2
-4
-2
-5
-3
-4
-6
-7
-8
-10
-7
-11
-9
-10
-7
-8
-10
-9
-13
-12
-14
-16
-17
-21
-21
-21
-21
-22
-22
-26
-23
-22
-23
-23
-20
-18
-16
-15
-10
-9
-2
2
4
8
6
8
13
11
11
11
14
16
12
12
10
11
12
11
12
13
13
11
11
9
12
12
12
11
14
12
8
7
5
6
7
6
5
5
8
4
2
3
2
2
3
1
2
2
6
4
8
4
4
3
4
4
3
3
1
-2
2
-2
-3
-2
-7
-2
-3
-5
-4
-7
-3
-5
-5
-6
-5
-7
-7
-8
-5
-5
-8
-9
-7
-9
-7
-9
-4
-4
-9
-5
-4
-6
-8
-7
-8
-7
-8
-10
-8
-9
-11
-10
-11
-9
-8
-10
-12
-12
-13
-13
-12
-15
-13
-17
-15
-16
-16
-17
-17
-19
-21
-19
-23
-22
-21
-21
-19
-22
-23
-20
-20
-19
-21
-19
-16
-19
-21
-22
-19
-18
-13
-10
-4
2
4
-3
-13
-35
-58
-87
-112
-139
-147
-138
-115
-83
-55
-33
-20
-12
-5
2
-1
1
2
3
3
1
3
0
1
3
0
1
2
-1
2
2
0
-4
-8
-9
-10
-6
-6
-6
-10
-7
-7
-9
-11
-12
-12
-11
-15
-8
-12
-15
-13
-17
-17
-16
-17
-20
-23
-25
-26
-25
-25
-25
-23
-24
-24
-23
-26
-27
-25
-22
-18
-20
-15
-12
-11
-8
-7
-4
1
4
6
7
8
9
10
12
13
16
13
14
13
14
15
13
13
13
14
12
11
13
10
11
10
9
6
8
10
7
9
6
7
8
8
7
3
8
7
8
6
5
4
8
7
3
2
6
6
2
6
3
4
3
3
3
1
0
3
3
-1
2
1
2
3
3
-1
1
-3
-1
-2
0
0
-3
-1
-3
0
-2
2
-2
1
-3
3
-2
-3
0
-2
0
-3
1
-2
1
-2
-1
1
-5
-5
-7
-9
-11
-9
-9
-11
-8
-5
-3
-6
-5
-1
-5
-5
-2
-1
-5
-3
-6
-6
-5
-4
0
6
7
7
3
-6
-24
-45
-71
-99
-125
-140
-140
-123
-95
-66
-41
-22
-10
0
5
6
11
9
14
13
18
20
14
13
17
15
14
13
11
10
11
12
7
11
7
10
8
8
8
7
3
8
8
2
4
-1
5
1
4
-3
-3
-4
-3
-6
-6
-10
-10
-10
-13
-15
-12
-16
-16
-17
-18
-20
-18
-20
-20
-14
-16
-11
-12
-11
-2
-2
-1
1
4
8
11
12
13
14
16
15
13
14
13
11
14
13
16
12
11
14
10
10
13
12
11
12
11
12
11
9
10
10
10
10
8
8
9
9
6
7
8
8
10
6
8
8
6
5
6
5
6
7
4
5
5
3
3
3
6
3
4
-1
5
2
4
4
3
1
4
6
2
3
4
-2
0
1
1
-3
0
-1
0
-5
-3
-3
-2
-2
-2
-5
-5
0
-7
-5
-5
-3
-5
0
-5
-6
-7
-7
-4
-5
-9
-10
-11
-10
-13
-15
-13
-16
-17
-15
-14
-10
-7
-8
-2
-4
-4
-6
-6
-4
-7
-4
-3
-5
-4
-3
0
3
3
9
11
8
-7
-20
-42
-70
-101
-124
-138
-139
-121
-95
-66
-41
-22
-15
-3
-2
5
7
7
6
7
8
10
8
7
10
12
7
9
11
11
7
10
8
8
8
7
7
3
8
4
4
5
1
2
-4
-2
-4
-4
-9
-5
-9
-11
-10
-8
-10
-13
-12
-16
-18
-15
-18
-16
-18
-20
-24
-25
-25
-26
-25
-25
-22
-19
-21
-16
-12
-12
-12
-6
-6
-4
-5
1
5
4
5
7
6
5
8
7
7
4
7
6
4
6
3
6
8
8
8
3
6
3
4
6
5
6
5
5
3
5
3
3
3
2
0
2
4
1
0
2
4
0
1
-3
1
1
3
2
-2
-1
-2
-2
0
-1
-2
0
-5
-2
-3
-1
-3
1
4
1
2
0
1
3
-3
-5
-3
1
-2
-5
-5
-2
-4
-5
0
-4
-4
-3
-4
-4
-5
-7
-5
0
-7
-10
-6
-5
-4
-5
-9
-8
-6
-8
-7
-6
-13
-7
-9
-8
-12
-6
-8
-8
-10
-14
-14
-15
-16
-17
-16
-20
-19
-16
-15
-16
-13
-13
-10
-12
-9
-8
-9
-9
-11
-9
-9
-9
-9
-9
-6
-3
2
6
8
4
-15
-33
-56
-84
-113
-136
-146
-135
-113
-81
-56
-31
-22
-9
-3
-1
2
3
3
7
5
9
7
12
9
7
10
6
6
6
6
6
5
4
2
3
3
2
-2
1
0
0
-2
-4
-7
-5
-5
-5
-7
-6
-8
-9
-9
-12
-13
-11
-12
-15
-17
-16
-16
-20
-21
-20
-20
-21
-17
-20
-21
-23
-19
-20
-18
-14
-12
-9
-6
-4
0
3
1
3
4
7
10
11
9
12
10
10
9
12
15
10
11
10
10
11
9
12
9
11
10
8
8
11
9
10
8
9
8
7
9
10
10
5
6
8
6
6
4
5
6
3
5
5
3
5
5
3
3
2
6
2
1
-3
1
3
-2
3
3
1
2
3
-1
2
-4
1
0
-2
1
-2
-1
0
-1
-2
0
-1
-3
-3
0
-3
0
-5
1
0
-5
-4
-4
-5
-4
-3
-3
-4
-2
-1
-3
0
3
-5
-5
-3
-5
-5
-7
-6
-3
-1
-5
-2
-3
-2
-2
-3
-4
-8
-5
-9
-8
-11
-7
-10
-11
-15
-15
-14
-12
-16
-10
-11
-7
-8
-4
-4
-3
-5
-6
-5
-6
-5
-7
-5
-4
-5
-2
1
7
12
15
12
3
-17
-39
-62
-94
-116
-137
-140
-121
-94
-63
-41
-22
-7
-2
3
6
7
9
8
8
9
9
8
13
10
8
9
9
4
8
6
8
5
5
4
5
5
5
5
4
3
2
1
1
-2
-2
-5
-5
-5
-10
-4
-10
-8
-9
-12
-12
-14
-13
-16
-17
-17
-21
-20
-23
-26
-22
-26
-24
-23
-25
-21
-23
-21
-16
-14
-13
-10
-9
-6
-2
-1
3
3
9
9
13
11
12
11
9
13
10
11
9
11
10
12
12
15
11
9
7
7
13
9
9
10
8
8
5
7
4
5
7
7
6
6
2
4
8
8
6
7
7
4
7
3
4
5
4
4
4
2
1
3
1
2
3
-1
4
2
2
1
0
0
-1
-2
-3
0
3
-1
1
-2
-1
-3
-4
-4
-4
-1
-5
-3
-4
-5
-3
-3
-6
-6
-7
-6
-5
-5
-6
-7
-4
-6
-5
-5
-4
-4
-3
-4
-7
-4
-4
-7
-7
-6
-10
-11
-12
-8
-10
-14
-15
-15
-19
-18
-17
-17
-17
-15
-15
-14
-10
-9
-10
-10
-9
-10
-11
-13
-10
-13
-13
-9
-7
-1
5
7
6
-2
-16
-39
-66
-96
-124
-142
-145
-126
-96
-71
-44
-26
-12
-7
-3
1
1
2
1
2
2
2
4
2
3
2
1
4
-2
3
-3
-3
0
-3
-4
-4
-4
-2
-8
-9
-9
-8
-7
-11
-8
-13
-15
-14
-12
-15
-17
-15
-18
-17
-19
-23
-23
-25
-25
-26
-29
-28
-30
-28
-28
-32
-32
-33
-32
-33
-28
-24
-24
-24
-22
-22
-16
-13
-10
-9
-4
-3
-2
3
2
1
-1
3
-1
6
5
4
4
6
3
8
3
6
8
6
4
3
7
3
2
8
4
1
8
4
6
7
6
3
5
5
5
3
5
3
4
-2
3
-2
1
-2
1
0
1
0
0
-1
0
3
-3
-2
1
-3
2
4
4
4
3
4
4
2
5
1
4
-2
-5
-3
-3
0
1
-2
-1
1
-2
0
-1
3
-1
3
-1
-3
-5
-5
0
0
-2
-3
-3
-2
0
-3
0
0
1
0
-2
-4
-7
0
-4
-5
-7
-9
-11
-8
-12
-12
-13
-9
-10
-8
-6
-5
-7
-3
1
-5
-2
-3
-3
-3
-5
-5
-5
-4
1
7
14
17
10
-1
-17
-44
-73
-101
-124
-141
-137
-115
-88
-60
-36
-19
-9
-3
-1
4
2
6
3
8
8
7
6
8
7
5
3
4
5
4
4
5
4
2
4
0
1
0
1
-1
-3
-3
-5
-6
-4
-5
-7
-4
-7
-9
-13
-12
-13
-15
-17
-17
-18
-16
-19
-22
-23
-26
-23
-24
-25
-28
-32
-28
-29
-28
-26
-24
-25
-18
-16
-14
-10
-7
-2
-3
-2
1
4
7
6
10
10
12
10
12
9
10
10
13
9
10
8
13
9
7
9
9
8
8
7
7
8
7
9
6
7
8
9
11
8
9
5
6
6
6
3
6
7
5
3
5
4
4
6
3
4
4
4
5
5
8
5
3
5
2
8
5
4
4
2
1
-2
1
-1
3
1
-4
-1
0
-2
0
-1
2
1
1
3
-4
-2
-2
-3
-2
-2
2
-3
0
-3
-6
-1
-2
-2
0
1
-1
-4
-5
-5
0
1
2
3
1
-2
-7
-7
-6
-7
-9
-6
-6
-10
-13
-12
-14
-11
-12
-11
-11
-9
-4
-7
-7
-9
-5
-5
-7
-6
-9
-5
-11
-3
-3
3
6
12
10
6
-3
-21
-38
-67
-94
-122
-141
-143
-124
-96
-69
-44
-25
-12
-3
3
6
8
8
7
5
10
11
11
9
10
11
10
9
8
6
12
7
6
3
4
5
5
3
2
1
2
1
-1
-3
0
-6
-6
-5
-8
-8
-6
-7
-8
-8
-11
-13
-12
-14
-16
-18
-18
-22
-21
-19
-21
-22
-23
-21
-22
-20
-22
-19
-18
-15
-15
-9
-7
-3
-3
4
1
4
7
10
8
8
8
10
11
10
8
9
12
12
10
12
8
9
11
8
8
7
8
8
6
6
8
3
8
7
8
8
9
7
5
4
8
10
7
6
6
7
5
5
8
4
3
3
0
4
4
3
3
4
5
1
1
-2
-1
-2
-2
-3
-3
-2
-3
-3
-2
2
0
-1
-4
-3
1
0
-3
2
-4
-2
-4
-6
-5
-1
-2
-5
-5
-5
-3
-4
0
-5
-5
-2
-4
-3
-5
-4
-3
-3
-4
-6
-7
-5
-8
-5
-7
-4
-3
-3
-6
-7
-7
-6
-7
-5
-5
-7
-8
-7
-6
-8
-7
-8
-7
-10
-13
-15
-9
-15
-15
-16
-16
-12
-13
-13
-8
-7
-7
-6
-5
-7
-4
-4
-5
-6
-8
-5
-7
-1
5
8
14
12
6
-9
-28
-52
-81
-108
-137
-144
-138
-114
-85
-55
-34
-18
-8
-3
1
7
5
7
9
9
10
12
10
10
8
10
9
8
6
8
8
9
8
7
4
4
-2
4
-1
2
-2
-5
-5
-4
-6
-8
-9
-8
-11
-13
-11
-11
-15
-13
-16
-16
-20
-23
-23
-27
-28
-27
-29
-28
-29
-31
-31
-30
-31
-29
-29
-25
-25
-19
-20
-16
-14
-10
-9
-8
-7
-2
1
4
-1
3
3
9
8
8
8
6
8
8
8
9
12
9
9
7
7
8
8
7
8
5
9
8
7
10
10
6
8
8
4
8
7
7
6
6
5
6
2
5
6
6
5
8
6
6
3
3
4
6
5
3
7
6
8
6
7
4
8
5
4
6
8
2
6
4
3
4
3
1
4
1
-2
1
0
-3
-3
-4
-3
-3
-4
1
2
1
-3
-3
-4
-4
-5
-5
-3
-7
-5
-5
-6
-5
-5
-3
-4
-6
-6
-7
-10
-9
-8
-9
-5
-6
-6
-9
-7
-8
-9
-9
-9
-12
-10
-13
-11
-13
-14
-13
-15
-19
-15
-14
-12
-10
-11
-9
-8
-10
-9
-8
-9
-9
-9
-8
-8
-7
-8
-5
4
9
11
11
3
-11
-30
-59
-87
-114
-132
-139
-127
-100
-72
-44
-21
-6
4
12
9
10
12
12
14
18
18
16
14
15
19
13
11
11
9
12
13
8
8
10
5
7
7
5
5
6
7
4
-1
1
-3
-2
-3
-3
-7
-6
-9
-7
-12
-10
-13
-12
-16
-18
-18
-18
-21
-24
-24
-24
-26
-26
-26
-26
-24
-23
-27
-25
-22
-18
-14
-13
-13
-7
-7
-3
-2
4
7
5
8
5
9
11
9
12
11
12
14
9
15
13
9
13
10
8
10
8
6
9
10
9
13
9
11
9
7
5
4
5
3
10
7
6
10
8
7
7
6
5
6
7
8
3
9
7
3
1
6
4
-1
1
3
2
-3
4
2
0
3
1
0
3
2
1
-1
4
0
-5
-5
-4
-5
-1
-2
-6
0
-4
-3
-3
-3
-4
-5
-3
-4
-7
-8
-6
-6
-8
-9
-5
-7
-5
-8
-9
-6
-10
-10
-11
-15
-16
-18
-20
-16
-18
-16
-17
-11
-11
-14
-9
-11
-11
-11
-9
-9
-13
-9
-9
-10
-10
-8
-6
0
8
9
9
-7
-20
-42
-68
-98
-124
-141
-142
-122
-94
-65
-45
-25
-15
-6
1
-2
5
3
4
5
6
8
7
5
8
3
4
3
2
1
-3
-1
-1
0
4
3
1
-5
-2
-3
-4
-4
-9
-8
-6
-5
-10
-8
-11
-11
-11
-15
-15
-13
-16
-17
-16
-19
-21
-25
-26
-22
-24
-26
-26
-23
-25
-28
-27
-26
-25
-21
-20
-19
-15
-12
-13
-9
-4
-6
-1
2
3
6
6
6
6
7
7
8
7
5
4
8
10
8
10
7
11
10
10
9
8
7
7
7
8
7
8
6
7
6
8
3
4
6
6
6
3
1
1
3
4
4
4
0
4
3
3
4
3
4
1
0
0
-2
-2
-2
-2
-3
-5
-3
-5
-3
-2
-5
-6
-5
-6
-4
-5
-4
-4
0
-2
-2
-3
0
-3
-3
-4
-6
-4
-6
-5
1
-5
-7
-7
-4
-8
-4
-5
-5
-5
-11
-9
-8
-8
-13
-13
-15
-15
-14
-14
-13
-13
-6
-7
-7
-7
-4
-5
-4
-3
-6
0
-7
-2
-2
0
3
4
11
13
16
5
-8
-24
-49
-74
-102
-131
-142
-134
-110
-80
-56
-30
-15
-5
3
6
5
12
10
11
12
15
12
11
14
11
11
8
11
11
13
14
12
14
9
7
6
5
8
3
4
4
4
-1
-2
-2
-3
-1
-3
-7
-9
-7
-8
-9
-13
-10
-12
-10
-13
-13
-16
-15
-20
-21
-21
-23
-23
-25
-24
-26
-26
-24
-20
-20
-18
-15
-10
-12
-6
-4
0
2
4
3
8
6
8
7
9
6
12
11
11
11
11
7
8
9
9
12
7
7
6
7
11
7
8
5
6
11
10
8
7
7
10
8
6
8
5
10
9
9
9
8
13
12
12
12
12
12
11
9
12
9
10
9
9
9
8
8
8
7
10
10
7
6
8
11
10
7
6
9
8
7
5
8
7
6
6
3
4
3
4
3
4
4
4
4
6
3
1
4
-2
1
-3
-4
-5
-5
-6
-9
-11
-5
-5
-4
-2
-2
-2
-3
-2
0
-3
-2
-2
2
-5
0
-1
4
9
10
11
11
5
-6
-20
-45
-73
-103
-128
-143
-132
-110
-79
-51
-29
-14
-4
1
7
6
10
12
8
8
13
11
10
10
12
7
7
9
11
8
8
4
7
6
7
2
2
3
1
-1
0
-4
-4
-5
-7
-9
-6
-8
-8
-11
-10
-11
-11
-15
-18
-18
-21
-19
-21
-25
-27
-27
-28
-28
-29
-32
-29
-30
-30
-29
-31
-29
-22
-25
-22
-16
-17
-13
-13
-6
-3
-4
-3
2
3
4
5
4
7
4
8
8
9
3
8
5
2
5
5
4
2
3
4
2
3
5
5
4
4
6
3
4
4
6
6
6
8
5
4
3
4
-1
1
3
4
-2
0
3
-1
-2
-2
-1
-3
0
0
-1
-3
2
-1
-3
-4
-2
0
-3
0
-1
-4
1
0
-3
-5
-2
-5
-6
-3
-2
-3
-5
-5
-2
-3
-8
-10
-7
-9
-11
-10
-14
-15
-13
-11
-11
-8
-8
-6
-9
-6
-7
-6
-8
-6
-8
-10
-9
-10
-13
-7
-3
4
8
5
-3
-16
-37
-61
-87
-117
-139
-146
-136
-108
-78
-55
-34
-20
-11
-3
0
2
8
5
6
6
9
9
11
7
6
9
9
9
4
12
4
4
4
4
1
2
2
-1
1
-2
-3
-2
-4
-3
-5
-4
-9
-8
-8
-11
-13
-9
-12
-17
-16
-14
-20
-20
-20
-22
-24
-22
-25
-23
-27
-26
-26
-28
-28
-29
-25
-20
-21
-20
-16
-12
-9
-7
-4
-2
3
2
6
5
6
9
10
8
8
13
12
11
12
13
12
10
7
12
6
6
4
4
9
7
6
9
3
9
6
4
5
5
2
3
5
4
1
2
5
3
4
2
4
3
2
5
2
1
3
1
4
1
-5
1
-3
-2
-4
-1
2
-2
1
1
-2
-2
3
0
-2
-3
-3
-5
-3
-9
-9
-9
-8
-9
-9
-10
-9
-12
-14
-15
-13
-10
-10
-10
-9
-11
-4
-7
-7
-9
-6
-7
0
-7
-8
-8
-11
-7
-5
-3
7
13
10
8
-5
-28
-50
-76
-107
-127
-140
-137
-112
-84
-57
-34
-16
-8
-1
5
3
7
8
6
10
10
8
8
8
7
5
4
8
8
5
3
1
4
4
4
-1
1
-1
3
1
2
-5
0
-4
0
-2
-6
-7
-8
-5
-8
-8
-9
-11
-13
-17
-20
-19
-19
-16
-24
-27
-24
-25
-26
-23
-24
-23
-24
-27
-22
-19
-19
-17
-13
-11
-9
-7
-3
-1
-1
4
9
12
8
9
11
12
16
14
13
13
17
14
15
13
13
15
13
11
11
13
13
14
14
11
13
13
13
12
10
10
10
7
8
11
9
8
6
5
7
5
7
8
6
5
4
6
4
4
6
6
3
4
4
3
3
-1
6
4
5
-1
2
3
2
4
-1
-2
2
1
-1
-2
-5
-5
-2
-2
-1
-5
-3
-4
-5
-5
-7
-4
-6
-8
-6
-6
-9
-7
-7
-11
-10
-15
-15
-13
-14
-11
-9
-9
-9
-7
-6
-5
-3
-3
-5
-5
-7
-5
-6
-5
-3
2
6
11
11
11
0
-17
-41
-68
-102
-126
-145
-143
-120
-87
-58
-32
-17
-4
2
4
3
3
3
3
7
6
6
7
6
7
4
6
5
2
2
-3
0
2
-3
0
-6
-5
-7
-6
-7
-7
-8
-11
-12
-13
-13
-13
-15
-16
-16
-20
-21
-16
-22
-22
-23
-22
-22
-25
-28
-27
-28
-30
-30
-32
-33
-30
-32
-37
-32
-30
-29
-28
-27
-26
-19
-16
-17
-13
-8
-9
0
-4
3
6
3
3
3
7
3
8
10
3
6
7
7
4
6
4
7
8
9
4
2
4
4
4
4
4
4
4
4
3
3
5
4
4
2
6
3
1
1
4
1
0
6
2
5
1
1
4
-3
2
0
2
0
0
-5
-2
-2
0
-3
-1
1
1
-1
-2
-2
2
2
-1
-1
0
1
1
-2
-6
-4
-7
-3
-5
-4
-4
-5
-5
-3
0
-4
-5
-5
-6
-5
-7
-10
-7
-5
-7
-6
-10
-10
-13
-17
-11
-10
-7
-4
-7
-6
-7
-6
-2
-4
-2
-5
-4
-4
-4
-3
-5
1
-2
6
13
17
14
10
-7
-22
-47
-72
-105
-131
-140
-133
-109
-81
-55
-33
-16
-3
4
6
7
9
9
11
13
14
11
16
11
13
11
13
10
8
10
10
9
11
11
8
10
9
8
6
6
3
4
2
-1
1
0
-5
-7
-6
-9
-5
-5
-7
-7
-6
-11
-14
-14
-16
-18
-19
-18
-21
-23
-26
-24
-24
-24
-23
-22
-20
-20
-17
-15
-14
-8
-8
-5
-5
1
2
6
3
7
6
9
9
13
11
10
13
13
12
12
15
13
17
12
11
12
11
10
11
11
7
11
7
10
6
9
10
8
4
5
5
9
5
5
3
4
3
3
5
3
2
2
5
5
0
3
3
5
2
-1
-1
-3
-3
-2
-2
-2
-1
2
1
-2
-4
0
-6
-1
-2
-4
-5
-5
-4
-4
-5
-7
-3
-7
-9
-9
-5
-6
-5
-5
-7
-7
-6
-7
-7
-6
-7
-6
-5
-6
-9
-9
-9
-2
-6
-4
-8
-11
-5
-6
-7
-6
-8
-4
-4
-5
-5
-4
1
-6
-4
-5
-5
-7
-5
-8
-5
-6
-7
-9
-10
-13
-13
-15
-15
-16
-17
-13
-17
-15
-11
-12
-7
-8
-4
-10
-10
-9
-7
-9
-9
-9
-7
-7
-6
1
3
11
13
12
7
-10
-25
-48
-77
-105
-129
-143
-138
-111
-87
-58
-35
-19
-8
0
5
9
10
7
11
7
12
11
7
11
9
7
10
9
7
9
8
7
5
5
4
7
4
2
2
3
-2
-3
-4
0
-2
0
-5
-6
-8
-11
-9
-9
-12
-14
-21
-18
-21
-20
-24
-28
-33
-29
-28
-31
-29
-29
-29
-29
-27
-28
-27
-25
-27
-24
-24
-20
-18
-12
-13
-11
-6
-4
-9
3
5
2
3
3
7
8
7
8
8
10
6
7
9
7
9
5
8
8
5
6
9
6
7
9
7
8
9
7
7
6
5
8
8
8
2
6
3
6
7
7
4
4
4
3
6
2
5
8
3
0
2
1
4
3
4
0
2
3
2
3
2
3
4
4
2
6
3
4
3
2
3
4
4
3
4
3
2
4
2
5
1
4
-2
3
4
2
3
0
1
-2
2
-3
-3
2
0
0
0
0
-3
-5
1
3
0
1
0
-3
0
-3
-2
-3
-5
0
-2
-4
-5
-4
-4
-4
-3
-3
-4
-7
-5
-7
-3
-4
-5
-5
-7
-6
-5
-4
-4
-8
-6
-6
-7
-6
-6
-11
-12
-11
-16
-16
-13
-12
-8
-9
-8
-7
-9
-6
-6
-8
-5
-7
-8
-7
-6
-6
-5
-4
0
7
13
13
11
-3
-22
-43
-72
-99
-125
-138
-138
-118
-90
-61
-37
-18
-4
3
7
9
10
11
12
12
13
10
7
10
12
9
9
7
9
6
8
6
4
5
3
2
0
2
-3
-2
-2
3
-3
2
-3
-5
-4
-8
-8
-7
-11
-11
-11
-14
-11
-18
-17
-17
-19
-19
-20
-22
-21
-26
-24
-27
-26
-26
-26
-28
-30
-26
-25
-25
-20
-19
-20
-14
-15
-9
-6
-4
-3
1
-3
5
5
8
6
6
7
9
10
12
9
9
10
6
7
8
12
8
8
9
8
7
7
7
9
7
10
8
8
9
10
9
10
11
9
9
6
9
8
7
6
5
7
10
8
5
7
4
3
6
4
6
3
6
1
1
4
4
5
4
4
5
1
0
1
4
-2
0
-3
0
2
-2
-1
-6
-4
-4
-5
-3
0
-2
-5
0
-6
-5
-3
-6
-5
-6
-6
-5
-4
-1
-5
-6
-5
-7
-11
-7
-9
-6
-9
-8
-9
-7
-13
-9
-8
-8
-5
-8
-9
-12
-13
-10
-12
-12
-13
-13
-13
-14
-16
-15
-15
-17
-18
-20
-18
-12
-13
-17
-13
-11
-11
-9
-6
-13
-10
-13
-11
-11
-15
-12
-12
-10
-2
3
8
6
0
-15
-32
-56
-87
-114
-134
-145
-133
-107
-80
-53
-31
-16
-9
-6
-4
-1
0
-1
-3
-1
1
2
5
2
3
3
3
3
2
1
0
-2
-2
-6
-6
-4
-4
-5
-6
-5
-6
-9
-8
-7
-8
-6
-11
-10
-10
-14
-11
-12
-13
-13
-14
-16
-18
-19
-21
-20
-21
-23
-24
-24
-25
-20
-23
-20
-25
-26
-24
-23
-24
-20
-19
-15
-11
-11
-9
-4
-4
0
3
4
6
6
8
9
10
14
11
10
9
8
5
8
9
7
11
5
7
8
3
8
6
3
5
3
4
5
3
5
2
3
3
3
4
2
0
4
2
3
-3
2
3
-2
2
1
4
6
4
4
5
-1
7
3
3
7
1
4
4
4
8
6
4
5
4
3
3
4
4
4
-1
0
2
1
3
2
3
2
3
1
1
-1
1
-3
3
-2
-7
-4
-5
-3
-2
-5
-2
-2
-5
-4
-2
-6
-4
-4
-2
-3
-4
-3
-3
-4
-2
-5
-3
-7
-5
-10
-6
-10
-10
-15
-11
-13
-13
-14
-12
-11
-9
-8
-5
-7
-5
-4
0
-4
-6
-3
-6
-5
-8
-2
-2
5
8
12
7
2
-21
-43
-69
-97
-123
-139
-136
-120
-90
-65
-36
-17
-8
-3
6
5
7
10
15
10
14
10
14
13
9
11
12
12
11
9
9
11
9
7
5
6
5
3
3
4
4
1
-3
0
-5
-7
-7
-11
-6
-9
-8
-9
-11
-10
-12
-14
-12
-15
-17
-21
-16
-21
-21
-25
-25
-22
-27
-26
-31
-29
-28
-26
-23
-24
-20
-20
-16
-16
-11
-11
-7
-5
-5
-3
4
5
4
4
6
3
7
9
9
8
8
8
5
12
5
9
3
3
4
4
6
5
6
7
6
6
8
6
5
3
4
6
3
3
3
4
2
1
4
6
6
5
8
8
5
2
4
7
8
3
5
7
8
6
3
4
5
4
2
2
1
1
-1
0
0
0
2
0
-1
-1
1
0
3
1
1
-1
0
0
-2
-3
0
1
-1
-2
-3
-1
-4
0
-2
-5
-5
-4
0
-5
-5
-8
-8
-8
-8
-8
-8
-9
-8
-8
-8
-10
-10
-11
-7
-10
-11
-12
-15
-15
-17
-15
-14
-17
-16
-11
-14
-10
-10
-7
-8
-9
-5
-4
-3
-4
-5
-4
-7
-5
-4
-7
-2
8
11
15
7
-5
-21
-44
-70
-102
-123
-142
-138
-122
-95
-63
-39
-21
-8
0
3
6
7
8
8
11
10
13
15
14
14
14
12
10
10
10
10
10
7
9
6
3
8
4
6
3
-2
1
0
1
1
-2
0
-5
-2
-4
-4
-6
-5
-5
-9
-8
-10
-13
-12
-13
-15
-17
-14
-16
-19
-22
-18
-19
-20
-20
-23
-22
-19
-18
-16
-14
-13
-12
-4
-1
0
3
3
7
9
12
13
12
10
11
16
13
14
11
12
15
12
11
13
11
12
9
12
12
13
14
16
12
14
10
12
11
11
11
14
9
11
9
8
10
8
7
9
9
8
9
7
5
7
5
6
7
6
5
12
9
3
8
6
4
4
6
3
3
3
2
4
4
5
0
5
4
1
0
0
-3
0
-3
-4
-4
-4
-4
-4
-5
-5
-4
-2
-2
-5
-3
-3
0
-3
-4
-2
-3
-3
1
-4
-4
-4
-5
-7
-7
-4
-6
-6
-7
-7
-7
-6
-8
-9
-10
-10
-15
-11
-12
-14
-8
-12
-6
-8
-7
-8
-8
-8
-6
-7
-3
-6
-10
-7
-9
-9
-5
-4
1
6
13
12
5
-11
-33
-53
-85
-110
-133
-138
-130
-103
-75
-48
-28
-15
-4
-2
2
5
3
7
4
6
8
3
3
1
4
3
3
2
-1
1
2
2
0
1
-2
-3
-2
-4
-6
-6
-8
-8
-8
-11
-8
-8
-11
-12
-12
-13
-14
-15
-16
-17
-16
-18
-21
-19
-25
-25
-23
-25
-25
-27
-29
-29
-29
-25
-31
-31
-29
-29
-27
-23
-21
-18
-18
-14
-13
-9
-5
-2
1
3
3
4
7
8
8
10
11
7
11
9
10
8
10
12
11
9
8
9
10
6
9
8
10
12
8
6
7
8
8
9
3
4
4
7
5
8
4
5
3
4
5
7
8
6
3
4
3
4
3
7
3
0
1
4
1
3
0
1
1
0
1
0
-1
-3
2
-1
2
-1
0
1
-7
-2
-4
-6
-5
-6
-3
-4
-4
-5
-5
-7
-3
-8
-5
-8
-8
-6
-6
-5
-7
-8
-8
-10
-13
-14
-14
-14
-12
-12
-13
-11
-8
-6
-6
-6
-7
-6
-5
-6
-4
-8
-8
-8
-6
0
3
12
13
12
4
-13
-32
-58
-87
-115
-133
-138
-124
-99
-70
-45
-21
-11
-1
3
5
9
9
6
8
9
10
10
12
11
9
10
10
9
8
4
8
5
2
4
3
2
2
0
-4
1
-5
-4
-5
-7
-7
-7
-9
-9
-10
-13
-12
-12
-15
-16
-18
-19
-20
-22
-24
-25
-26
-26
-30
-29
-30
-29
-32
-30
-32
-31
-28
-28
-28
-28
-25
-17
-18
-14
-12
-10
-7
-6
-3
0
2
4
1
6
6
10
8
10
8
8
8
4
7
4
7
7
3
4
4
8
5
6
4
6
6
3
3
4
5
5
2
6
3
5
4
2
1
3
4
-1
-1
5
2
1
4
-1
4
1
5
4
4
-1
0
-1
3
2
1
2
1
1
-3
-7
-4
1
1
1
1
0
0
0
-2
-5
-6
-1
-3
-2
-6
-2
-2
-4
-5
-3
1
-3
-1
2
-3
-2
-2
0
-2
-5
-5
-8
-5
-8
-9
-7
-13
-10
-11
-8
-4
-4
-4
-5
-4
-4
-5
-5
-3
0
-1
-2
0
0
2
3
9
16
15
10
1
-17
-43
-69
-95
-123
-136
-135
-114
-87
-60
-38
-18
-10
2
5
10
6
11
11
13
14
11
12
10
12
10
11
8
9
11
12
12
12
12
9
8
6
5
7
5
5
3
5
3
3
0
1
1
-4
-3
-2
-5
-5
-3
-6
-8
-8
-9
-12
-10
-10
-14
-15
-17
-21
-22
-22
-22
-19
-22
-20
-20
-17
-17
-14
-10
-9
-7
-9
-2
-1
4
7
3
8
7
11
12
14
11
14
15
13
12
15
12
16
13
13
11
13
9
12
10
10
11
12
5
7
9
6
5
4
7
8
4
8
4
4
6
8
4
5
6
1
5
4
3
5
3
4
2
3
1
1
3
3
2
-1
1
2
4
1
2
4
5
2
3
2
3
4
1
3
3
4
4
4
1
5
4
2
0
1
2
1
0
-2
0
0
1
-3
2
-1
-4
-5
-2
-7
-4
-6
-9
-6
-10
-9
-12
-12
-17
-12
-8
-8
-9
-5
-3
0
-2
0
2
-4
-5
2
-3
-4
-2
-1
0
2
5
11
16
13
3
-14
-33
-57
-88
-119
-134
-141
-128
-102
-76
-48
-29
-17
-3
4
4
5
8
10
6
11
12
9
11
10
8
12
8
11
5
4
6
7
5
7
3
1
5
-2
-1
0
-2
-3
-3
-7
-5
-6
-4
-7
-5
-8
-8
-9
-8
-13
-11
-16
-15
-17
-15
-21
-19
-17
-19
-20
-24
-26
-22
-27
-27
-28
-27
-25
-23
-24
-21
-18
-15
-14
-7
-9
-7
2
2
5
6
7
5
7
8
8
7
7
6
7
7
5
8
4
10
7
6
7
5
8
6
9
8
7
6
6
5
7
5
7
3
3
2
5
4
5
2
5
-1
4
4
1
3
-1
2
2
3
4
0
1
2
2
1
3
0
-1
-2
0
-2
-2
-5
-4
0
0
-5
-1
-3
-7
-7
0
-3
-5
-4
-6
-6
-5
-8
-7
-9
-4
-8
-8
-5
-7
-9
-7
-9
-8
-7
-8
-10
-11
-12
-14
-13
-16
-17
-17
-17
-16
-12
-14
-12
-13
-12
-9
-8
-8
-7
-7
-7
-8
-9
-7
-11
-7
-3
1
9
12
10
-3
-19
-37
-67
-96
-125
-140
-145
-123
-96
-66
-43
-23
-11
-3
1
5
2
4
3
4
6
5
5
7
2
2
-1
3
0
-1
2
-3
-2
0
-4
-5
-7
-4
-4
-6
-3
-6
-5
-4
-9
-10
-9
-11
-9
-12
-17
-14
-17
-15
-16
-19
-17
-18
-21
-22
-23
-23
-26
-26
-26
-27
-28
-30
-30
-29
-30
-26
-27
-24
-20
-20
-18
-15
-13
-8
-7
-9
-2
4
2
6
5
10
8
10
10
11
8
10
12
13
10
12
10
8
9
9
7
10
8
8
8
7
10
7
10
7
8
6
9
9
4
7
6
5
6
4
6
5
4
6
6
6
6
4
3
4
3
0
4
5
4
6
1
0
0
-2
0
-1
1
-3
-3
-2
3
-4
0
-2
-3
1
4
-1
-4
-6
-5
-7
-2
-3
-5
-5
-5
-7
-3
-9
-10
-10
-15
-10
-14
-11
-12
-9
-7
-4
-5
-4
-3
-5
-2
-7
-3
-5
-6
-8
-5
-2
-2
1
6
10
14
12
0
-19
-36
-63
-95
-121
-133
-134
-121
-90
-62
-34
-19
-3
2
7
9
10
8
11
11
11
12
9
10
14
11
11
10
11
6
9
5
6
5
2
5
0
2
2
-3
1
-3
0
3
-5
-5
-3
-5
-5
-9
-10
-7
-10
-12
-10
-13
-17
-19
-15
-18
-19
-20
-22
-23
-24
-23
-25
-29
-27
-28
-29
-27
-24
-24
-23
-17
-15
-15
-10
-6
-7
-2
1
0
2
5
8
6
7
8
5
5
3
4
6
3
4
4
8
8
7
7
3
1
3
3
6
4
3
3
5
4
3
6
6
4
4
4
0
4
2
0
3
3
1
4
5
2
1
3
4
3
3
1
2
3
2
1
2
-2
0
0
2
-3
-3
-2
-1
-4
-3
0
2
3
1
1
1
-6
-2
0
-2
-1
2
0
-2
-4
3
-2
-3
-5
-5
-3
-5
-6
-8
-8
-7
-9
-10
-14
-10
-9
-4
-8
-6
-4
-6
-3
0
-5
-3
-1
-3
-1
2
-4
1
1
4
11
18
18
11
5
-14
-36
-62
-89
-117
-136
-136
-120
-96
-64
-41
-21
-6
1
3
9
15
15
14
15
13
15
16
14
12
15
15
14
12
11
12
10
10
9
8
8
6
4
3
6
3
4
3
-2
-1
-1
-5
1
-7
-4
-5
-5
-11
-10
-10
-14
-14
-16
-17
-18
-21
-22
-19
-23
-25
-22
-24
-27
-25
-27
-27
-25
-22
-25
-20
-16
-17
-11
-10
-8
-4
0
0
6
6
5
8
10
10
7
8
9
7
8
7
9
11
7
8
9
7
10
9
9
9
8
8
9
5
9
8
10
6
10
8
6
5
6
7
5
3
6
3
1
5
5
1
3
3
3
1
4
6
4
4
4
4
2
2
4
1
0
2
2
-1
-1
-3
-2
-3
1
-4
-2
-3
-3
-3
1
-4
-2
-1
-1
0
-1
-5
1
-2
-3
-2
1
-1
-4
-3
-4
-2
-7
-8
-4
-7
-9
-12
-10
-11
-16
-14
-11
-10
-9
-9
-8
-9
-5
-5
-4
-4
-6
-5
-8
-7
-8
-8
-6
-3
-6
8
9
13
5
0
-18
-37
-63
-97
-119
-139
-141
-123
-97
-64
-42
-23
-9
4
6
7
8
11
11
12
11
10
11
12
8
10
9
7
6
12
5
6
7
4
4
5
4
3
2
0
0
-3
-3
-1
-9
0
-4
-5
-5
-8
-10
-9
-10
-13
-11
-16
-13
-16
-17
-16
-22
-21
-22
-24
-23
-22
-24
-26
-24
-26
-29
-27
-24
-21
-19
-16
-14
-14
-10
-4
0
1
-2
3
4
8
9
10
10
12
11
12
11
13
11
10
9
9
10
8
10
10
11
9
10
8
11
12
11
9
7
7
8
10
10
11
10
12
11
10
6
7
8
7
7
9
3
7
7
7
6
5
8
4
8
5
5
1
7
8
4
4
2
2
1
1
4
3
4
1
-2
-3
-2
-6
-4
-5
-5
-5
-5
-3
-2
-3
-3
-3
-6
-4
-2
-2
-4
-3
-2
-5
-6
-5
-5
-9
-6
-8
-9
-6
-10
-5
-8
-11
-9
-10
-11
-11
-15
-13
-8
-10
-9
-6
-7
-7
-9
-8
-7
-9
-9
-5
-9
-8
-7
-6
-3
3
9
14
11
0
-16
-35
-62
-94
-119
-139
-142
-127
-96
-67
-41
-26
-12
-5
-4
2
-1
4
4
5
6
4
8
5
2
3
3
1
2
1
1
5
-1
4
1
-1
-2
0
-1
-5
-5
-4
-3
-5
-6
-4
-3
-5
-9
-5
-6
-10
-11
-13
-14
-14
-16
-17
-21
-20
-21
-22
-23
-24
-27
-25
-28
-32
-29
-30
-30
-29
-28
-27
-24
-23
-24
-19
-15
-14
-10
-7
-5
-1
3
4
5
9
9
10
10
10
11
12
9
10
11
8
6
10
8
6
7
9
10
4
6
6
4
7
8
3
8
6
2
5
4
5
5
1
6
5
1
4
2
3
4
0
2
3
2
0
-2
0
-5
-1
-3
-4
-3
0
-3
-4
-2
-5
-5
-1
-4
-5
-2
0
0
-6
-5
-2
-4
-7
-4
-6
-9
-8
-6
-7
-6
-8
-5
-7
-9
-8
-8
-6
-8
-9
-9
-13
-12
-10
-10
-11
-14
-17
-15
-14
-16
-16
-19
-15
-15
-14
-13
-10
-10
-10
-9
-8
-7
-8
-4
-5
-9
-9
-8
-5
-5
0
8
9
12
9
0
-17
-40
-69
-98
-125
-139
-141
-121
-92
-62
-39
-21
-10
-2
1
5
7
6
5
9
8
8
9
7
3
6
6
6
3
7
8
8
3
2
2
-1
4
0
6
0
0
-5
0
-7
-5
-6
-7
-4
-6
-5
-10
-9
-13
-10
-13
-12
-10
-17
-19
-18
-20
-23
-22
-26
-24
-27
-28
-24
-24
-27
-29
-30
-29
-25
-23
-21
-17
-15
-15
-9
-7
-6
-2
-1
0
3
7
6
6
7
7
9
10
11
9
10
7
9
12
11
8
9
9
12
8
9
6
10
5
8
9
8
8
6
8
7
9
3
8
4
3
6
6
3
5
8
4
5
4
4
4
8
8
3
3
3
2
2
3
-1
1
2
1
5
1
4
4
4
0
2
3
1
-1
1
-5
-4
-5
1
-3
2
-2
0
-2
-3
-5
-6
-3
-5
-6
0
-2
-5
-5
-7
-2
-4
-2
-4
-4
-2
-2
-5
-7
-4
-7
-8
-11
-16
-9
-12
-14
-11
-15
-11
-9
-8
-7
-5
-4
-4
-7
-7
0
-4
-5
-2
-5
0
-2
-3
3
7
11
7
4
-12
-32
-53
-84
-110
-135
-144
-128
-105
-76
-53
-30
-12
-5
3
6
10
11
9
14
12
12
12
11
9
13
11
12
9
8
9
7
7
7
7
7
8
5
7
3
2
3
-2
-1
-1
-3
0
-2
0
-7
-4
-5
-6
-11
-8
-11
-9
-13
-15
-17
-15
-19
-17
-20
-21
-25
-23
-24
-24
-25
-27
-26
-26
-22
-23
-21
-17
-16
-12
-13
-8
-4
-5
2
3
4
6
6
9
7
8
10
7
10
10
8
9
10
7
9
8
7
8
9
9
10
6
9
11
13
12
14
10
10
9
9
7
6
8
6
7
6
7
-1
7
6
5
5
2
6
3
3
8
4
4
4
3
3
1
5
6
4
4
4
4
4
2
5
2
1
1
-2
-1
-3
-3
2
-1
-1
1
-1
-1
-3
2
0
0
0
-2
0
-3
-1
-3
-4
0
-4
-3
-5
-3
-4
-5
-3
-3
-5
-2
-5
-5
-4
-7
-5
-7
-8
-12
-6
-9
-7
-8
-10
-9
-12
-12
-14
-15
-17
-17
-12
-13
-13
-13
-9
-9
-8
-11
-7
-7
-9
-9
-11
-6
-8
-8
-8
-7
-5
8
7
7
2
-10
-26
-48
-79
-104
-129
-146
-141
-118
-91
-60
-40
-22
-12
-2
3
5
12
9
9
7
8
9
8
12
7
12
8
9
8
7
10
8
8
5
8
7
4
3
6
-1
1
2
-1
-4
-3
-2
-5
-7
-5
-7
-11
-8
-10
-11
-12
-13
-16
-16
-15
-17
-19
-20
-19
-23
-22
-23
-22
-29
-25
-26
-25
-24
-23
-23
-23
-21
-18
-16
-12
-9
-10
-4
-5
0
0
4
5
6
9
10
12
9
11
8
9
9
9
8
8
9
10
11
5
8
10
7
7
7
7
8
7
5
5
8
6
7
7
7
9
4
1
5
6
8
6
5
4
6
5
5
5
5
6
8
7
4
7
4
4
4
5
3
3
2
0
2
2
2
-1
-5
-2
-2
4
2
-1
-1
-1
2
2
-5
-3
-3
0
-2
-1
-1
-3
-2
-2
-1
1
-2
3
1
0
2
3
-1
-2
1
0
3
1
-3
0
-1
-2
-3
-5
-5
-5
-6
-5
-4
-5
-9
-7
-9
-15
-8
-13
-14
-13
-11
-7
-7
-5
-7
-6
-5
-5
-4
-7
-7
-6
-8
-6
-5
-4
-4
3
3
11
12
9
-5
-21
-40
-67
-96
-122
-137
-136
-119
-88
-61
-35
-16
-4
1
4
5
10
11
12
9
12
10
14
11
10
16
14
11
12
11
10
9
8
7
5
6
3
4
3
1
1
2
1
-2
0
-2
-4
-4
-6
-6
-6
-9
-9
-9
-9
-10
-14
-17
-14
-17
-16
-19
-19
-23
-24
-24
-29
-26
-30
-28
-32
-30
-31
-29
-30
-27
-22
-18
-18
-14
-15
-13
-10
-9
-6
-4
-2
1
3
3
4
4
3
10
9
7
6
6
7
6
7
6
5
5
5
7
2
5
8
7
6
8
6
5
7
3
2
2
6
5
1
0
-3
-2
1
2
-1
2
1
-5
0
-3
-3
-5
-2
-5
-3
-1
-4
-5
-3
0
0
-3
-5
-5
-2
-3
-4
-4
-6
-7
-8
-4
-6
-4
-6
-7
-6
-9
-6
-8
-6
-8
-5
-9
-6
-8
-8
-10
-10
-11
-11
-9
-12
-13
-12
-10
-11
-13
-12
-15
-13
-18
-17
-18
-13
-13
-11
-13
-10
-8
-10
-10
-12
-9
-11
-11
-6
-10
-6
-9
-5
2
5
8
7
-4
-19
-38
-70
-94
-123
-144
-145
-125
-101
-69
-46
-27
-15
-6
-2
4
3
4
3
6
7
6
5
9
10
7
11
5
10
6
8
6
6
1
7
5
5
5
4
6
2
3
-3
1
-3
-6
-4
-6
-6
-4
-5
-8
-9
-9
-9
-11
-11
-14
-18
-17
-16
-20
-22
-20
-22
-23
-24
-24
-28
-26
-27
-27
-24
-25
-24
-22
-19
-18
-13
-7
-6
-4
1
3
1
5
6
7
5
7
10
12
11
12
10
7
7
12
9
10
8
6
11
9
7
9
9
7
10
9
9
8
9
9
7
8
8
5
8
6
8
8
10
8
8
4
4
4
5
4
6
4
3
5
4
3
1
3
3
6
3
4
3
2
2
1
1
4
3
3
0
4
-1
0
2
2
-1
-3
-4
-4
-5
-2
-3
0
-3
-2
-5
-5
-2
-4
-5
-6
-8
-5
-5
-8
-9
-10
-12
-15
-13
-13
-13
-8
-10
-9
-6
-5
-6
-3
-4
-2
-4
-2
-7
0
-3
-3
-2
4
8
11
12
8
-3
-20
-44
-71
-98
-125
-137
-135
-113
-86
-54
-31
-15
-2
5
11
11
13
16
15
13
17
11
18
13
14
12
9
12
10
9
7
5
7
7
6
6
5
3
0
3
1
0
-2
-3
-1
-2
-3
-8
-4
-8
-7
-11
-10
-11
-11
-11
-12
-15
-16
-18
-18
-21
-21
-23
-23
-26
-24
-24
-27
-29
-24
-25
-23
-21
-20
-19
-16
-14
-10
-4
-3
2
4
5
7
8
10
9
12
9
14
10
13
14
13
7
12
8
9
9
11
7
10
10
8
7
12
7
9
10
8
8
10
7
7
6
6
8
5
8
7
6
10
9
6
7
9
7
5
4
9
4
4
1
6
4
1
1
2
4
2
-2
-3
-1
-7
-2
1
-5
-3
0
0
-5
0
-5
-2
-5
-3
-7
-8
-8
-4
-4
-5
-5
-4
-4
-5
-8
-9
-5
-6
-8
-10
-9
-12
-12
-13
-14
-14
-16
-16
-6
-10
-7
-7
-5
-6
-2
-4
-7
-6
-5
-5
-7
-4
-6
-5
-4
5
7
11
11
-2
-17
-34
-56
-88
-121
-138
-147
-134
-110
-76
-47
-29
-14
-5
2
5
5
6
10
12
12
14
10
10
11
11
13
11
11
12
9
8
8
6
8
6
8
6
4
0
1
-1
-2
-1
-5
0
-2
-5
-6
-4
-9
-6
-11
-11
-9
-11
-15
-15
-16
-14
-17
-16
-20
-20
-23
-27
-25
-27
-27
-27
-29
-26
-26
-24
-24
-22
-17
-12
-11
-9
-6
-4
-4
2
1
3
5
12
7
12
8
9
11
9
15
11
12
11
11
13
11
11
12
14
12
9
12
9
13
9
10
11
9
11
10
7
8
7
6
7
12
6
10
7
12
7
9
8
10
5
6
8
4
8
3
4
4
5
3
6
3
1
4
2
0
-2
0
2
-4
3
4
-1
3
2
0
2
-1
-3
-2
0
-7
-5
-6
-7
-8
-6
-6
-10
-11
-9
-13
-10
-11
-15
-17
-15
-17
-20
-18
-17
-15
-14
-15
-11
-12
-9
-8
-8
-10
-11
-9
-10
-12
-10
-10
-6
-4
1
5
10
9
1
-14
-34
-58
-88
-116
-138
-143
-132
-106
-78
-47
-30
-15
-3
2
3
3
3
6
6
7
8
8
8
8
6
7
6
7
3
6
3
2
1
0
0
2
-5
0
-4
-6
-5
-8
-9
-10
-11
-15
-15
-16
-16
-14
-16
-17
-18
-19
-18
-21
-18
-24
-24
-23
-28
-26
-28
-29
-29
-28
-29
-33
-34
-37
-34
-35
-32
-30
-26
-26
-25
-20
-17
-11
-13
-8
-3
0
-2
1
2
6
6
4
5
5
6
8
9
8
6
6
6
4
8
5
7
8
6
5
4
3
4
5
6
4
5
6
2
3
0
1
0
0
1
3
1
2
4
4
3
0
-3
0
0
-5
-1
2
-2
-2
0
-4
-5
-5
-4
0
-3
-4
-5
-1
-3
-5
-3
-2
-5
-5
-3
-3
1
3
-1
-5
2
-4
-3
-6
-6
-7
-10
-9
-8
-11
-12
-12
-12
-14
-12
-9
-7
-6
-4
-2
-6
-5
-4
-5
-5
-7
-4
-4
-5
-2
-1
2
7
10
13
13
8
-11
-34
-58
-85
-116
-131
-135
-120
-93
-67
-40
-18
-5
4
6
9
11
12
12
14
11
8
9
7
9
9
7
9
7
7
6
9
8
8
5
6
5
4
3
1
3
2
-2
1
-1
-4
-6
-4
-6
-6
-10
-9
-9
-9
-9
-9
-13
-12
-16
-14
-17
-16
-16
-19
-20
-21
-26
-25
-24
-24
-27
-26
-23
-22
-24
-22
-14
-11
-13
-6
-4
-1
1
5
5
6
10
8
11
10
13
14
13
11
16
11
12
15
17
11
14
14
12
13
14
13
10
9
10
8
7
11
8
10
10
12
14
10
10
12
9
9
8
10
8
5
6
5
5
11
7
9
9
2
4
3
2
2
2
3
4
5
3
8
4
5
2
-1
3
8
5
3
1
2
1
1
-1
0
2
2
4
-1
-1
1
-1
0
-5
0
-2
0
-6
-5
-9
-9
-13
-16
-13
-12
-13
-9
-9
-11
-8
-8
-4
-6
-7
-5
-7
-3
-2
-5
-3
-5
-1
6
12
10
11
4
-11
-30
-61
-83
-115
-135
-140
-128
-104
-76
-47
-27
-11
-3
4
7
10
8
10
13
11
13
13
10
10
6
12
8
10
10
10
9
10
9
7
9
6
8
2
5
4
1
2
2
-3
-3
-3
-5
-4
0
-6
-6
-6
-8
-8
-10
-13
-12
-14
-16
-16
-18
-16
-20
-21
-22
-22
-25
-20
-25
-25
-27
-27
-24
-21
-23
-19
-15
-14
-7
-6
-4
0
3
3
5
7
7
12
12
11
11
14
14
9
12
10
14
12
13
11
8
10
12
12
13
12
12
11
9
9
8
6
7
10
10
9
8
7
8
8
8
5
3
7
5
6
3
3
6
6
5
5
4
3
5
5
5
1
5
2
4
2
2
2
2
0
1
2
4
-2
-3
-2
-4
0
1
-4
-3
-2
-4
-5
-5
-5
-4
-3
-7
-5
-4
-4
-4
-5
-5
-9
-5
-7
-8
-9
-10
-13
-13
-13
-13
-19
-16
-16
-13
-14
-11
-9
-10
-11
-8
-8
-7
-9
-8
-8
-10
-8
-9
-7
0
5
9
8
6
-8
-24
-44
-74
-102
-128
-143
-142
-123
-94
-66
-39
-22
-8
-5
0
5
5
8
8
10
8
9
11
9
7
9
5
9
4
6
5
6
3
4
3
-1
1
2
3
4
1
2
2
1
-1
-4
-5
-5
-6
-8
-5
-9
-11
-12
-12
-13
-15
-12
-15
-16
-16
-18
-20
-21
-24
-25
-24
-29
-22
-23
-27
-27
-25
-22
-21
-19
-17
-11
-13
-5
-6
-4
-3
0
4
7
7
10
11
12
10
10
12
12
10
10
12
10
9
11
12
9
8
10
8
10
8
8
6
4
9
6
6
3
6
7
5
4
-1
2
3
4
5
2
3
3
4
4
1
1
2
2
2
2
-1
0
0
-2
-4
-5
0
-4
-4
-5
-5
-5
-3
-4
-3
-1
-2
-1
0
0
0
-4
-2
-5
-4
-4
-4
-3
-4
-3
-5
-7
-7
-9
-7
-6
-7
-6
-8
-4
-6
-5
-7
-7
-7
-7
-10
-11
-10
-10
-16
-14
-17
-17
-17
-15
-16
-13
-10
-9
-10
-11
-11
-10
-11
-13
-11
-11
-9
-9
-10
-10
-8
-4
-1
5
7
6
-6
-21
-40
-67
-96
-124
-143
-144
-125
-94
-64
-39
-24
-9
-3
-2
3
7
6
8
4
6
7
5
2
7
6
8
4
1
5
3
0
-2
2
1
-2
-2
-4
-1
-2
-2
-4
-4
-5
-8
-7
-10
-11
-10
-13
-10
-11
-12
-13
-15
-17
-17
-16
-19
-18
-20
-19
-25
-25
-21
-24
-25
-26
-27
-28
-32
-30
-31
-30
-28
-24
-23
-21
-17
-15
-11
-7
-3
0
4
2
4
5
7
5
7
8
8
9
8
9
7
11
11
10
8
7
7
5
7
5
7
7
11
7
10
8
8
6
8
8
5
6
3
5
6
5
4
4
2
3
4
5
3
6
3
5
8
4
5
3
5
4
5
2
3
2
1
4
4
3
2
0
0
1
-3
-4
-5
0
-5
0
-2
-5
-3
-4
-3
-5
0
-2
0
1
1
2
-1
2
0
-3
-3
-2
-4
-5
-6
-9
-9
-13
-9
-10
-8
-7
-6
-5
0
-5
-5
1
0
-3
-2
-6
-2
-2
1
-3
2
0
2
10
16
13
13
1
-13
-39
-64
-93
-120
-138
-141
-116
-93
-62
-41
-22
-11
2
1
5
5
5
6
8
10
12
10
11
9
9
9
9
11
12
9
7
10
7
6
8
8
6
8
6
3
7
4
2
-3
-6
-3
-3
-5
-7
-6
-11
-10
-10
-12
-12
-11
-15
-18
-16
-21
-21
-18
-21
-24
-24
-24
-22
-25
-29
-29
-25
-26
-26
-21
-21
-20
-15
-10
-7
-8
-6
-4
3
4
5
5
10
10
12
11
9
11
14
13
12
10
13
11
10
11
15
13
12
10
8
8
10
9
8
5
7
6
8
6
7
7
8
8
3
5
7
10
7
6
1
8
6
6
5
5
4
3
4
4
6
7
6
5
4
4
1
1
3
3
2
8
3
6
5
5
6
6
2
4
2
1
3
6
-1
1
1
-2
0
1
1
0
-3
1
2
0
-3
-2
2
-4
-5
0
-5
0
-5
-6
-9
-7
-11
-10
-13
-15
-15
-8
-9
-13
-7
-9
-7
-7
-9
-5
-9
-9
-4
-4
-7
-4
-5
-4
3
8
11
13
7
-9
-24
-45
-74
-100
-127
-142
-141
-114
-88
-66
-40
-22
-12
0
0
4
6
6
7
10
9
12
11
10
11
10
12
10
10
10
7
8
7
7
8
3
6
4
4
4
5
0
0
1
-2
-3
0
-3
-4
-6
-7
-9
-8
-10
-13
-14
-13
-15
-16
-16
-18
-21
-21
-23
-26
-24
-25
-26
-28
-25
-30
-27
-26
-24
-25
-23
-18
-16
-15
-14
-9
-5
-3
-4
-2
5
2
6
6
6
6
7
7
8
6
7
7
8
7
12
8
6
10
6
8
5
8
4
3
6
5
7
5
3
5
6
4
-1
4
3
2
1
2
4
2
0
1
2
4
3
5
2
-1
-2
-4
1
-2
1
0
1
-1
1
0
2
4
0
1
-3
-1
-3
-3
-3
-2
4
2
-2
-2
-3
0
-2
-2
-3
-3
-6
-3
-2
-3
1
-5
-3
-7
-6
-6
-7
-7
-8
-9
-8
-9
-11
-11
-13
-15
-10
-12
-12
-13
-11
-8
-11
-8
-5
-4
-5
-7
-7
-6
-6
-2
-4
-4
-6
-5
-5
4
7
11
12
12
-1
-17
-36
-64
-92
-118
-135
-140
-126
-99
-63
-43
-24
-13
-3
1
6
6
9
10
12
9
9
8
7
9
7
10
8
11
9
9
5
6
5
3
8
6
8
7
7
3
5
5
2
2
4
0
1
0
0
-2
-5
-4
-6
-7
-7
-7
-8
-12
-10
-10
-16
-18
-19
-16
-19
-18
-21
-22
-23
-21
-22
-22
-21
-18
-18
-15
-19
-12
-11
-7
-3
-3
2
0
7
7
7
12
12
8
9
11
12
9
12
11
10
12
12
11
12
8
8
7
9
8
9
7
6
6
7
6
5
6
3
4
3
2
1
1
2
2
-1
2
2
4
3
4
-2
-2
2
-3
-1
-1
-2
2
-1
-5
0
-3
-2
-2
-3
-5
-5
0
-5
-7
-2
-6
-5
-6
-6
-5
-7
-4
-7
-3
-9
-10
-9
-8
-9
-8
-7
-10
-9
-7
-11
-14
-8
-12
-14
-13
-15
-16
-12
-17
-17
-14
-12
-11
-11
-8
-11
-9
-13
-10
-10
-12
-9
-5
-8
-8
-8
-6
-6
-3
6
10
12
7
-7
-25
-48
-78
-108
-130
-140
-136
-113
-83
-54
-31
-14
-6
3
6
4
7
5
8
11
10
8
8
3
5
8
7
6
5
5
5
3
3
6
5
4
0
0
-2
1
0
0
-2
-6
-3
-1
-4
-4
-4
-6
-8
-11
-12
-10
-12
-11
-14
-17
-15
-15
-17
-19
-19
-20
-22
-22
-23
-25
-24
-28
-30
-28
-29
-26
-23
-23
-18
-15
-14
-12
-6
-7
-3
0
4
4
3
5
9
9
9
9
12
15
9
12
13
10
12
9
11
7
7
9
8
8
11
10
11
8
8
9
6
6
6
6
7
8
7
6
6
4
8
7
6
8
8
3
6
5
3
-2
3
4
6
1
4
4
1
2
4
3
3
4
2
2
4
0
4
-1
-2
1
2
0
2
-2
0
-2
1
4
1
0
1
4
-3
-5
-3
0
-5
-7
-12
-13
-12
-12
-13
-11
-8
-6
-3
-5
-5
1
0
-2
0
2
-2
-3
-3
-4
-3
-3
5
10
13
13
11
6
-9
-32
-55
-80
-110
-131
-139
-123
-99
-73
-47
-28
-11
-3
0
5
6
10
8
10
12
10
12
12
8
7
10
7
7
8
8
7
7
7
6
3
3
2
0
3
2
-3
1
-4
-1
-3
-5
-4
-6
-4
-8
-4
-7
-7
-13
-7
-12
-12
-14
-19
-15
-18
-16
-18
-18
-20
-23
-23
-25
-26
-24
-26
-25
-28
-20
-20
-18
-13
-15
-11
-6
-2
-2
3
6
8
6
9
10
12
12
12
9
10
13
11
9
11
11
9
9
11
11
8
7
7
6
8
5
6
8
6
7
8
6
6
4
2
4
6
6
4
2
2
3
4
1
5
5
4
5
5
3
3
3
1
-2
0
3
-3
-2
-3
-3
-1
0
-1
-2
-5
-3
-3
-4
-5
-7
-6
-5
-6
-5
-6
-6
-6
-3
-9
-5
-9
-3
-5
-5
-7
-5
-10
-10
-6
-10
-10
-11
-13
-13
-16
-15
-15
-12
-14
-11
-8
-7
-3
-7
-7
-4
-2
-6
-3
-5
-8
-8
-5
-4
2
4
9
11
9
1
-13
-30
-57
-81
-109
-133
-145
-133
-109
-79
-54
-30
-16
-4
2
5
6
9
8
8
9
12
9
12
9
11
9
7
7
9
6
9
7
5
4
3
2
3
3
1
1
1
-3
1
-4
-5
-5
-2
-6
-5
-8
-9
-7
-13
-11
-12
-15
-17
-16
-18
-19
-18
-19
-20
-23
-22
-26
-24
-26
-26
-28
-25
-25
-26
-27
-25
-24
-22
-16
-10
-11
-8
-4
-3
-1
3
5
6
8
9
6
8
10
7
11
9
9
10
7
10
10
10
10
7
5
10
9
10
10
10
7
6
7
7
8
5
6
5
5
6
5
3
4
6
5
6
2
2
4
2
2
4
2
4
1
2
1
0
4
-3
0
0
4
2
2
-3
1
-5
-1
0
-4
-7
-4
-3
-4
-2
0
-4
-5
-7
-2
-4
-5
-5
-6
-5
-6
-6
-3
-4
-3
-6
-3
-6
-7
-9
-8
-10
-10
-11
-17
-15
-14
-13
-9
-9
-7
-5
-4
-4
-3
-4
-3
-3
-4
-2
-3
-2
-6
-5
-1
1
4
11
16
9
2
-15
-36
-57
-92
-116
-134
-139
-128
-101
-70
-44
-25
-14
-1
3
4
5
10
9
8
7
12
8
10
9
8
9
10
9
5
4
1
3
3
5
3
1
3
4
0
1
-3
0
-3
-5
0
-4
-8
-10
-8
-13
-11
-11
-11
-13
-17
-12
-13
-8
-12
-14
-16
-17
-17
-19
-20
-23
-23
-24
-25
-27
-28
-27
-25
-24
-21
-18
-18
-14
-12
-7
-7
-1
-2
-1
3
8
6
8
8
10
11
12
11
9
7
10
8
6
10
10
11
9
8
5
9
9
6
4
6
7
8
7
7
7
8
4
3
4
6
6
4
3
7
2
6
6
4
3
6
3
8
4
3
5
8
3
1
4
3
1
1
1
-4
-3
1
-4
-6
-4
-3
-6
-7
-8
-5
-5
-3
-5
-8
-4
-5
-6
0
-3
-5
0
-5
-3
-4
-7
-10
-9
-8
-8
-10
-13
-14
-14
-16
-17
-17
-14
-12
-14
-11
-13
-13
-12
-12
-10
-9
-8
-9
-9
-7
-13
-7
-4
-6
-4
7
14
12
4
-8
-24
-46
-78
-105
-132
-141
-131
-111
-78
-52
-31
-14
-4
3
3
4
7
8
10
10
7
9
8
11
7
5
5
6
3
1
6
3
2
1
2
0
1
-2
-1
-4
-5
-6
-4
-4
-5
-7
-7
-9
-8
-9
-10
-10
-13
-15
-14
-14
-16
-17
-17
-18
-19
-19
-25
-25
-26
-25
-22
-25
-28
-31
-28
-27
-27
-27
-24
-21
-23
-16
-13
-11
-11
-5
-5
-4
-1
1
5
6
8
11
9
8
9
9
14
10
11
10
9
9
12
10
11
11
6
8
6
6
8
8
6
5
6
5
1
4
3
8
8
6
3
5
6
5
4
3
6
6
3
1
3
6
2
0
1
0
1
4
-2
1
1
2
2
-2
0
2
1
-4
-3
-5
-4
-5
0
-4
-4
-9
-3
-2
-4
-2
-5
-4
-4
-5
-5
-6
-8
-8
-10
-10
-12
-11
-16
-14
-13
-13
-11
-10
-5
-9
-4
-5
-4
-4
-5
-3
-5
-7
-7
-3
-7
-5
-5
3
8
13
13
7
-1
-22
-45
-71
-98
-123
-139
-134
-114
-88
-60
-37
-17
-6
-2
2
3
7
10
12
11
9
9
12
9
11
10
7
8
8
4
6
6
8
5
4
2
4
5
5
4
1
-4
-2
1
-1
-3
-3
-4
-7
-7
-6
-5
-7
-7
-12
-11
-10
-14
-14
-14
-14
-14
-18
-17
-22
-22
-24
-19
-22
-24
-24
-26
-20
-21
-20
-19
-14
-15
-13
-8
-5
1
0
3
6
3
12
14
10
14
11
10
9
11
14
12
14
11
16
11
12
11
10
11
12
10
12
10
12
10
10
9
8
7
13
9
10
8
8
8
8
9
7
10
8
5
4
3
7
4
7
3
5
4
5
6
4
4
2
4
2
3
2
1
2
0
-1
1
2
0
0
-1
2
-1
-1
1
1
0
-4
1
-5
-3
1
-2
-2
-2
-3
0
-1
-5
-7
-5
-8
-9
-10
-10
-10
-11
-8
-10
-5
-6
-7
-6
-5
-7
-9
-7
-7
-8
-7
-9
-6
-6
-5
-5
4
4
12
8
8
-13
-28
-51
-80
-110
-131
-143
-133
-113
-84
-55
-35
-19
-7
1
2
6
8
10
10
13
11
16
12
14
10
10
9
9
7
6
8
6
6
6
8
9
6
5
3
-1
4
1
2
1
-2
-5
-2
-5
-7
-7
-6
-9
-9
-11
-11
-11
-11
-12
-14
-17
-16
-17
-19
-22
-21
-20
-24
-24
-25
-28
-26
-25
-24
-25
-24
-18
-21
-18
-15
-11
-8
-10
-5
-3
2
-1
5
8
6
7
9
7
10
9
7
10
11
8
7
8
10
10
9
8
9
9
9
9
9
10
9
7
9
6
6
9
7
8
7
5
5
7
5
3
4
5
6
5
3
7
5
6
3
3
1
1
3
0
-1
1
2
3
4
0
-3
3
-3
-5
0
4
0
0
-4
0
-4
-7
-5
-5
-5
-6
-4
-5
-4
-6
-6
-5
-4
-2
-6
0
-3
-6
-6
-6
-4
-8
-8
-12
-13
-16
-12
-17
-14
-16
-11
-11
-10
-8
-7
-6
-5
-5
-6
-5
-6
-5
-4
-6
-5
-5
-4
-2
4
9
12
8
0
-17
-40
-65
-93
-116
-137
-139
-120
-95
-65
-41
-25
-10
-3
1
7
5
8
10
9
11
10
9
13
11
14
12
13
9
7
8
4
6
2
6
3
5
3
0
1
1
-4
-1
-1
-2
-2
-5
-3
-3
-5
-4
-6
-8
-8
-9
-9
-12
-11
-9
-13
-14
-17
-18
-19
-20
-25
-24
-23
-22
-25
-27
-27
-27
-22
-22
-23
-21
-15
-12
-13
-10
-5
-6
-1
4
2
3
5
12
6
9
8
8
7
6
4
4
7
8
7
6
5
4
7
3
6
9
3
6
3
3
3
4
3
2
2
-1
1
4
2
2
3
3
3
2
4
2
1
1
1
-1
-2
-1
0
0
3
-3
-1
4
1
0
4
2
2
0
3
4
0
1
-3
-1
-4
-2
2
1
-3
2
-2
-3
-3
0
-3
-4
-2
-1
-2
0
-6
-6
-6
-9
-6
-8
-5
-9
-7
-11
-14
-15
-16
-17
-16
-14
-11
-10
-8
-4
-8
-9
-10
-10
-9
-12
-10
-9
-9
-8
-9
-6
-5
7
8
8
2
-10
-30
-47
-81
-108
-132
-142
-135
-111
-78
-50
-30
-12
-4
3
5
10
5
3
8
9
9
8
7
7
12
7
9
5
3
8
6
4
2
-3
2
1
-3
-1
-2
-4
-2
-9
-4
-5
-7
-8
-8
-11
-11
-10
-14
-11
-12
-15
-15
-15
-17
-19
-18
-19
-21
-22
-22
-24
-28
-24
-27
-29
-27
-29
-27
-28
-28
-28
-25
-23
-24
-24
-17
-16
-14
-7
-9
-7
-4
0
0
6
3
2
6
4
5
6
7
4
8
4
6
3
6
9
5
9
6
7
5
4
3
4
2
3
5
6
5
2
6
4
6
5
5
7
2
4
6
3
4
-1
2
6
4
2
2
5
3
1
2
-2
-1
1
2
1
0
2
1
2
-3
-1
-5
-2
-1
-5
-2
-3
-6
-5
-2
-7
-3
-5
-6
-4
1
0
-5
-5
-9
-9
-7
-8
-7
-10
-11
-12
-14
-11
-12
-9
-8
-9
-7
-7
-5
-7
-5
-5
-5
-9
-8
-7
-7
-6
-5
-2
0
8
16
14
5
-4
-23
-47
-72
-100
-124
-139
-136
-112
-83
-59
-35
-19
-8
-2
4
6
10
10
9
12
10
11
9
9
11
12
11
8
9
9
6
8
5
5
3
6
5
3
-2
1
1
2
-2
1
-5
-3
-1
-3
-6
-3
-5
-7
-9
-5
-9
-10
-13
-13
-13
-13
-16
-16
-17
-21
-19
-21
-21
-22
-20
-25
-24
-24
-24
-20
-21
-22
-15
-14
-15
-9
-8
-6
-2
1
0
7
1
6
7
9
9
10
11
7
10
9
8
8
7
12
7
11
7
5
9
10
8
4
8
6
6
8
5
6
8
8
6
5
6
7
8
3
6
3
6
7
6
8
7
5
5
2
8
6
3
6
6
4
2
5
5
5
3
0
2
-1
-1
0
-3
-2
-3
-2
0
-5
0
-4
-3
-5
-3
-5
-3
-3
-4
-4
-2
0
4
-3
-3
-4
-3
-6
-2
-7
-7
-8
-11
-11
-12
-8
-10
-8
-9
-4
0
-2
-3
-4
-6
-4
-3
0
-3
-5
1
-3
-1
4
5
16
16
17
9
-4
-28
-53
-82
-109
-129
-138
-127
-105
-77
-49
-29
-15
-2
3
7
12
9
11
11
13
14
13
12
10
12
11
7
10
12
12
9
11
8
8
5
2
8
5
3
3
4
7
4
3
4
4
3
3
1
1
1
-2
-6
-4
-7
-9
-11
-8
-12
-14
-14
-14
-14
-15
-19
-21
-17
-20
-20
-20
-23
-21
-19
-18
-18
-14
-14
-12
-11
-7
-3
-1
2
5
5
9
10
13
13
12
14
15
13
13
11
11
11
12
12
12
13
11
10
10
9
10
11
10
10
10
10
6
8
7
3
8
5
5
7
4
4
2
3
6
4
3
4
-1
4
2
-1
1
-1
2
-1
-3
-3
-4
2
1
1
3
0
0
2
-1
-3
-2
-3
0
-1
-3
-2
-4
-5
-2
-2
-6
-7
-5
-3
-5
-7
-8
-9
-6
-6
-7
-5
-4
-4
-2
-7
-8
-8
-9
-7
-9
-13
-14
-13
-12
-12
-12
-9
-9
-8
-9
-7
-4
-5
-5
-5
-5
-9
-4
-6
-9
-8
-9
-7
-3
2
7
7
2
-10
-33
-51
-82
-111
-135
-145
-139
-117
-83
-59
-37
-18
-11
-3
1
5
6
8
6
10
7
8
7
13
7
8
7
7
8
8
7
6
5
10
9
3
6
4
5
3
-1
-1
2
2
-1
-2
-2
-6
-2
-7
-5
-9
-8
-14
-10
-13
-14
-15
-12
-17
-15
-21
-22
-23
-23
-24
-25
-25
-27
-28
-29
-26
-26
-26
-22
-23
-19
-18
-14
-12
-11
-9
-7
-2
0
1
3
3
3
4
6
4
8
7
5
7
8
6
6
3
8
5
5
7
6
10
6
6
6
8
6
8
7
8
7
6
6
8
6
7
6
3
4
5
3
7
6
6
6
3
3
3
2
4
0
0
3
-3
-1
-1
1
-1
0
-5
-2
-2
-3
-3
0
-3
0
0
-5
0
-5
-5
-5
-5
-6
-7
-5
-5
-2
-4
-4
-3
-4
-5
-4
-7
-6
-5
-6
-7
-11
-10
-10
-15
-14
-9
-11
-11
-8
-4
-5
-5
-5
-5
0
-6
-5
-4
-7
-3
-6
-2
-3
3
9
12
10
8
-6
-22
-45
-75
-104
-124
-139
-133
-109
-81
-53
-30
-12
-4
2
5
8
7
8
10
7
10
9
10
12
7
7
7
5
5
5
2
2
-1
3
2
-1
1
-3
-3
-3
1
-6
-2
-5
-6
-6
-6
-7
-5
-7
-9
-9
-9
-15
-13
-13
-17
-16
-16
-18
-21
-17
-22
-22
-25
-24
-27
-31
-29
-30
-24
-24
-28
-28
-24
-23
-17
-16
-13
-12
-10
-9
-4
-3
-3
1
8
4
8
9
7
10
8
7
9
9
8
7
7
9
12
10
10
7
11
8
9
9
10
9
10
8
12
9
9
8
6
8
6
6
6
5
8
5
6
7
7
6
5
6
5
4
4
5
8
8
4
6
4
6
5
4
3
2
4
3
4
1
0
2
-2
2
-3
0
4
0
3
-3
4
-2
-4
-3
-4
-4
-7
-6
-9
-8
-7
-10
-9
-12
-12
-13
-17
-13
-12
-8
-8
-7
-10
-5
-8
-6
-7
-6
-5
-10
-5
-3
-1
-6
1
-2
5
7
11
13
7
-5
-21
-47
-77
-103
-126
-139
-132
-113
-89
-59
-34
-21
-7
0
1
6
7
9
9
12
7
12
9
14
9
10
7
7
6
9
7
3
3
4
4
3
-1
2
1
1
-5
-1
-4
-3
-2
-5
-5
-7
-9
-8
-8
-9
-9
-10
-11
-8
-11
-13
-12
-17
-18
-16
-22
-21
-21
-20
-23
-24
-26
-27
-28
-27
-25
-27
-26
-22
-21
-19
-14
-13
-8
-6
-2
0
1
4
6
6
8
8
9
9
10
12
9
9
13
8
11
10
9
12
8
10
8
11
8
9
7
8
9
8
10
8
7
6
7
7
8
3
6
4
5
4
4
6
3
3
4
3
0
2
4
1
-2
-2
-3
-1
-3
-1
-4
-6
-3
-5
-4
-3
-5
-2
-4
-5
-3
-4
-7
-5
-6
-9
-4
-7
-6
-4
-5
-9
0
-7
-5
-5
-3
-8
-5
-7
-7
-6
-8
-11
-12
-11
-20
-17
-16
-16
-10
-12
-9
-9
-7
-5
-6
-5
-5
-4
-5
-4
-4
-6
-6
-6
-3
-1
7
12
9
5
-6
-22
-43
-69
-98
-121
-140
-136
-119
-94
-65
-43
-23
-10
-2
-1
6
8
8
7
12
12
11
10
11
12
8
10
9
10
7
7
9
8
6
6
3
3
2
-3
1
-1
-2
-2
-3
-2
-3
0
-6
-6
-6
-8
-8
-6
-8
-9
-12
-11
-8
-15
-13
-16
-16
-17
-19
-21
-20
-18
-24
-25
-24
-24
-28
-24
-25
-24
-22
-19
-16
-15
-15
-7
-7
-6
1
-1
6
4
6
8
10
9
9
12
13
14
11
10
11
14
12
9
12
10
7
8
8
8
9
8
9
6
7
6
6
3
2
4
3
5
4
5
6
5
4
4
8
6
6
4
4
3
6
1
4
-2
0
-2
-2
0
-3
0
4
4
-1
-1
-1
-3
2
-1
-4
1
-4
-2
-1
-4
-4
-5
-6
-5
-5
0
-8
-3
-5
-5
-6
-4
-4
-5
-6
-6
-4
-9
-8
-7
-8
-13
-10
-13
-12
-12
-10
-9
-9
-9
-6
-10
-8
-4
-6
-4
-4
-4
-5
-6
-6
-6
-5
-4
3
7
13
13
7
-6
-24
-51
-73
-99
-129
-141
-137
-115
-85
-59
-35
-16
-8
0
1
6
5
10
6
8
10
9
10
9
9
10
12
11
9
8
7
5
7
7
4
4
1
3
4
2
-2
-3
-3
-3
-5
-2
-3
-5
-5
-6
-10
-7
-11
-9
-13
-8
-15
-14
-18
-17
-19
-19
-19
-25
-22
-24
-24
-26
-25
-22
-25
-26
-27
-26
-22
-22
-21
-21
-17
-13
-10
-9
-3
-2
0
3
4
10
7
7
10
9
10
9
8
8
8
8
8
7
7
8
7
8
6
7
8
7
8
9
4
5
8
5
4
4
8
5
4
5
7
7
8
5
5
5
3
1
3
4
2
1
1
2
3
1
1
0
-2
-2
-3
0
-2
0
-2
-1
-5
-1
0
-1
-2
0
-4
-3
-4
-6
-5
-5
-8
-4
-5
-5
-6
-5
-5
-7
-7
-6
-11
-10
-9
-10
-12
-12
-13
-16
-19
-14
-15
-15
-12
-10
-11
-5
-9
-7
-6
-6
-7
-8
-7
-9
-7
-4
-7
-4
-1
5
10
9
5
-10
-29
-53
-81
-108
-131
-139
-126
-103
-75
-45
-26
-9
-3
1
4
8
10
5
10
8
9
8
7
8
9
8
5
7
8
8
8
8
5
5
3
-2
2
-2
0
-1
-3
0
-4
-6
-6
-7
-7
-9
-11
-10
-11
-12
-12
-8
-9
-13
-11
-13
-17
-16
-21
-20
-20
-20
-21
-23
-24
-26
-26
-26
-25
-25
-28
-24
-24
-23
-18
-20
-13
-12
-9
-8
-4
-7
-3
1
4
5
6
10
7
9
8
11
9
12
6
10
7
8
8
8
8
7
8
9
5
8
8
5
7
8
5
7
3
7
3
2
5
4
3
5
6
4
4
5
4
3
5
-2
3
2
2
5
-1
2
0
-1
-3
-2
-4
-3
-1
-4
-5
-3
-3
-2
-3
-5
-5
-3
-6
-3
-5
-4
0
-3
-3
-5
-3
-3
-6
-6
-5
-6
-9
-7
-11
-8
-14
-12
-13
-13
-10
-9
-9
-7
-9
-7
-5
0
-5
-3
-5
-4
-3
-4
-6
-5
-2
3
11
11
11
10
-3
-26
-44
-73
-100
-125
-140
-131
-110
-81
-57
-32
-16
-4
-1
5
6
7
8
10
8
12
11
11
9
7
12
8
8
6
6
4
4
3
6
3
2
1
-1
3
0
-1
-3
2
-6
-7
-4
-7
-5
-8
-7
-10
-10
-9
-10
-10
-14
-14
-14
-13
-18
-15
-18
-22
-21
-25
-29
-27
-26
-28
-28
-28
-30
-29
-25
-29
-25
-21
-16
-16
-8
-11
-9
-6
-1
2
5
3
4
10
6
9
8
7
11
11
8
8
10
11
10
12
8
10
10
11
9
12
10
7
10
5
8
7
8
7
7
8
9
7
6
12
5
9
10
9
10
8
8
8
6
7
4
4
6
6
3
4
2
0
0
3
2
2
3
-2
1
3
1
-1
4
-1
0
1
3
3
1
0
1
-4
-4
-5
-5
0
-3
-5
-6
-7
-9
-7
-9
-10
-14
-12
-12
-11
-8
-10
-6
-6
-6
-5
-4
-5
-2
-4
-5
-5
-2
1
-9
-2
-2
-3
5
6
12
15
9
1
-17
-41
-62
-96
-122
-134
-137
-118
-93
-63
-40
-22
-7
0
5
5
9
12
11
11
12
8
12
14
12
10
10
8
7
9
12
8
6
9
7
5
5
5
6
4
2
5
2
-3
-3
-4
0
-3
-6
-7
0
-5
-8
-11
-9
-8
-11
-10
-14
-13
-17
-19
-17
-23
-23
-22
-20
-20
-23
-21
-23
-25
-23
-21
-20
-20
-16
-15
-15
-14
-4
-4
-5
-1
5
7
7
6
8
10
8
11
11
11
12
12
10
9
11
11
9
11
9
12
10
12
11
12
10
10
9
11
6
10
9
7
9
7
5
9
8
5
3
6
4
4
5
4
6
6
5
5
1
6
5
4
4
3
-2
4
2
1
3
2
4
-1
0
0
2
1
1
-2
0
-3
-2
-5
-5
0
0
-5
-1
-2
0
0
-3
2
-4
-2
-3
-7
-6
-5
-7
-11
-11
-13
-14
-14
-14
-13
-11
-10
-11
-6
-3
-6
-5
-7
-2
-2
-5
-4
-7
-5
-8
-5
0
1
5
12
9
7
-9
-23
-46
-73
-104
-126
-140
-134
-111
-84
-55
-35
-16
-7
-1
5
7
7
10
12
11
10
10
14
9
13
9
11
8
9
8
8
5
7
4
3
1
2
3
2
3
1
-2
3
-1
0
-4
1
-6
-9
-6
-8
-11
-6
-9
-12
-11
-12
-10
-14
-17
-15
-16
-16
-19
-21
-17
-21
-23
-21
-26
-27
-22
-24
-26
-24
-24
-18
-14
-12
-12
-8
-9
-7
-4
-3
2
5
6
7
6
8
9
8
10
8
7
9
9
8
9
6
9
9
6
7
9
7
5
3
6
5
3
10
8
6
3
4
5
1
3
2
4
5
4
3
5
3
4
1
3
4
-2
8
1
-1
3
-5
2
-2
-1
0
2
0
-3
-1
-5
-2
-5
-2
0
-6
-3
-2
-5
-2
-5
-4
-5
-1
-6
0
-6
-7
-7
-5
-5
-6
-6
-6
-7
-8
-9
-8
-10
-9
-9
-12
-8
-15
-13
-16
-15
-18
-14
-13
-9
-8
-9
-8
-7
-11
-9
-9
-9
-5
-8
-8
-5
-8
-9
0
2
10
11
11
0
-13
-35
-59
-87
-117
-134
-142
-129
-101
-73
-50
-29
-12
-4
2
2
9
4
4
8
6
10
5
8
8
9
7
5
10
5
6
8
3
3
4
6
4
4
-1
-3
-3
3
-2
-2
-2
-4
-3
-4
-5
-9
-10
-8
-12
-11
-13
-9
-10
-14
-12
-16
-19
-17
-23
-19
-24
-22
-25
-23
-29
-27
-26
-28
-30
-29
-27
-26
-25
-21
-21
-13
-9
-9
-9
-4
-3
-1
0
5
5
8
11
10
11
8
10
11
10
9
10
8
9
8
9
8
6
8
4
5
4
3
0
-1
1
4
2
4
4
1
-2
2
4
1
-2
0
-3
1
0
-1
-3
-2
-2
-1
-3
0
0
1
0
-2
-1
0
4
-3
-5
0
2
1
-2
-5
2
-3
-4
1
0
-1
-3
-4
-4
-8
-5
-6
-5
-7
-4
-4
-4
-6
-8
-9
-3
-8
-5
-7
-8
-6
-9
-8
-11
-10
-15
-12
-17
-15
-14
-16
-15
-14
-11
-13
-7
-9
-9
-7
-9
-8
-5
-6
-8
-8
-8
-5
-4
-5
3
10
12
7
2
-13
-38
-60
-86
-117
-135
-140
-126
-98
-68
-46
-23
-15
-4
1
5
5
8
5
9
8
6
7
11
10
8
6
9
8
8
4
7
4
5
6
3
2
2
4
1
0
1
-2
-1
0
-5
-4
-4
-4
-6
-4
-8
-7
-9
-11
-10
-13
-14
-13
-17
-15
-18
-19
-19
-20
-20
-23
-22
-22
-21
-25
-23
-26
-22
-23
-22
-23
-19
-17
-15
-11
-9
-11
-3
-4
1
2
7
9
8
12
12
13
12
12
7
9
9
12
11
11
12
11
10
9
7
10
7
8
9
6
7
9
9
7
4
9
7
7
7
7
6
5
7
5
10
4
5
5
5
8
5
7
5
8
4
3
4
6
8
3
1
3
3
2
5
4
3
2
-2
-3
-5
-4
-4
0
1
-3
-4
-3
-5
0
-5
-5
-8
-6
-7
-6
-4
-4
-6
-6
-7
-5
-9
-6
-10
-11
-11
-9
-12
-11
-12
-10
-16
-17
-15
-14
-8
-12
-13
-8
-10
-5
-5
-5
-4
-6
-5
-7
-7
-4
-6
-5
-2
2
2
10
13
10
-5
-18
-39
-66
-93
-121
-138
-137
-120
-94
-60
-39
-23
-6
2
3
7
5
11
11
12
12
13
16
13
12
13
15
12
12
9
12
7
10
8
12
7
8
7
7
6
7
4
5
4
0
-1
-1
0
-5
-5
-4
-5
-9
-9
-8
-11
-13
-10
-17
-15
-15
-16
-18
-19
-18
-21
-21
-24
-23
-29
-25
-24
-25
-26
-23
-23
-21
-18
-19
-16
-11
-11
-9
-7
0
-2
4
5
4
5
11
10
9
13
10
11
11
9
9
12
8
8
6
10
6
6
6
8
6
6
6
7
6
6
5
3
7
4
4
4
4
1
2
4
4
1
3
1
3
1
-2
2
-1
1
0
-5
-2
-5
0
2
-3
-4
-3
-5
-1
-2
-4
-3
-4
-2
-3
-5
-6
2
-1
-2
0
0
-4
-4
-2
-2
0
-7
-3
-5
-4
-4
-6
-4
-5
-5
-7
-5
-8
-8
-7
-7
-4
-5
-6
-9
-8
-8
-8
-11
-10
-11
-14
-13
-12
-10
-10
-6
-5
-6
-5
-3
-6
-4
-2
-6
0
-5
-1
-3
-5
-3
4
8
11
13
6
-1
-16
-37
-63
-93
-116
-137
-143
-127
-96
-70
-43
-27
-11
-5
2
7
12
11
12
7
12
16
11
11
11
9
10
10
6
7
9
9
6
9
7
5
3
3
3
4
6
3
1
2
-3
1
-1
-2
-2
-3
-5
-9
-8
-6
-10
-9
-10
-9
-13
-14
-12
-12
-13
-14
-16
-15
-19
-20
-20
-21
-22
-23
-22
-24
-22
-20
-20
-19
-14
-14
-10
-10
-6
-3
-3
1
5
1
6
8
8
8
6
9
10
10
12
8
11
9
9
9
7
9
11
10
12
11
8
10
9
9
9
8
10
7
11
5
8
5
5
3
7
7
6
6
5
7
5
6
7
4
9
6
8
3
2
4
3
4
2
0
-2
2
4
-1
-2
-1
0
0
4
-1
0
4
3
-5
-3
-3
-4
-3
-2
-2
-2
-7
-3
-3
-4
-5
-6
-3
-5
-5
-5
-3
0
-2
-4
0
1
-5
-2
-4
-7
-5
-7
-7
-9
-9
-8
-8
-12
-11
-10
-15
-14
-14
-9
-13
-10
-9
-4
-6
-6
-6
-11
-5
-5
-7
-8
-7
-3
-8
-3
-3
8
9
11
7
-5
-22
-38
-71
-101
-121
-141
-136
-117
-91
-61
-37
-20
-10
-6
-1
5
5
5
7
9
7
7
10
7
9
9
8
8
6
7
7
8
3
5
2
-1
1
4
-3
-3
2
0
-5
-7
-6
-6
-6
-8
-8
-9
-10
-11
-13
-15
-13
-15
-15
-14
-17
-19
-20
-20
-22
-18
-22
-24
-27
-28
-29
-28
-27
-32
-30
-26
-28
-24
-20
-20
-19
-16
-15
-12
-9
-7
-7
-4
-2
-1
2
6
8
3
7
7
7
8
8
10
5
6
9
6
5
6
3
4
3
3
1
2
3
3
4
2
2
4
2
2
0
3
4
3
0
2
1
0
1
2
2
3
5
5
4
4
1
3
-4
-3
-5
-7
-3
-3
-6
-6
-5
-5
-2
-5
-4
-5
-5
-1
-4
-2
-2
-4
-5
-2
-7
-7
-6
-9
-9
-9
-4
-7
-9
-5
-6
-8
-9
-8
-8
-9
-8
-7
-8
-12
-10
-10
-11
-13
-12
-14
-16
-16
-16
-16
-12
-10
-14
-11
-14
-8
-11
-8
-10
-8
-9
-11
-4
-9
-8
-7
-4
0
3
9
11
8
4
-12
-29
-56
-84
-114
-132
-139
-125
-99
-67
-43
-20
-10
2
3
6
8
9
11
12
13
11
10
10
5
10
9
10
9
5
6
6
4
1
1
5
2
0
-5
2
0
-4
-5
-3
0
-1
-4
-5
-5
-6
0
-5
-5
-9
-10
-12
-11
-13
-16
-14
-19
-20
-20
-20
-18
-20
-22
-23
-21
-23
-23
-25
-24
-25
-21
-21
-21
-19
-15
-12
-9
-12
-4
-2
2
3
7
9
12
14
14
12
15
11
12
16
13
11
13
12
14
15
12
14
9
11
11
12
10
9
10
14
11
11
9
9
7
8
10
9
7
7
7
3
6
8
5
6
3
2
5
5
0
4
4
3
5
4
2
1
-1
1
-4
1
1
1
-2
-1
1
-2
1
1
0
-1
-5
-2
-4
-4
-5
-3
-4
-5
-8
-7
-4
-6
-4
-5
-5
-9
-9
-4
-7
-8
-10
-13
-10
-14
-13
-13
-13
-10
-9
-11
-11
-6
-4
-8
-2
-6
-7
-5
-9
-6
-7
-7
-4
-3
2
8
11
11
3
-3
-21
-45
-73
-101
-127
-141
-137
-120
-92
-60
-36
-23
-9
2
3
9
7
8
11
12
11
11
13
12
10
8
9
11
10
8
9
8
7
6
5
6
5
4
6
6
0
2
0
0
-1
1
1
0
0
-6
-3
-5
-6
-6
-9
-13
-13
-12
-15
-16
-16
-15
-16
-20
-19
-22
-20
-22
-26
-26
-26
-26
-25
-26
-28
-22
-20
-20
-17
-13
-11
-6
-6
-2
0
3
4
8
9
9
12
9
10
14
11
11
9
10
12
12
9
10
11
11
8
10
12
7
9
9
10
6
5
6
6
6
8
7
7
6
3
3
3
5
4
4
5
5
5
3
3
4
4
3
3
3
3
3
-1
3
1
4
3
3
1
2
5
2
3
2
-1
-2
1
-3
2
-4
-1
0
-1
-4
-7
-7
-3
-4
-4
-6
-7
-6
-6
-9
-6
-5
-6
-7
-9
-8
-7
-10
-11
-11
-13
-12
-11
-13
-12
-11
-9
-5
-6
-3
-6
-6
-5
-4
-2
-5
-4
-4
-7
-8
-4
-5
1
5
12
16
11
4
-13
-32
-54
-84
-112
-131
-141
-129
-102
-74
-50
-30
-15
-3
2
3
8
10
10
16
11
10
14
11
12
14
11
11
12
9
10
6
9
5
5
4
3
2
1
4
2
-2
2
2
-5
-2
-6
-5
-8
-9
-8
-10
-7
-12
-13
-12
-12
-13
-13
-18
-17
-18
-21
-21
-23
-22
-25
-21
-27
-28
-28
-30
-30
-29
-25
-27
-23
-23
-21
-14
-15
-14
-9
-6
-4
-7
-2
-3
5
6
8
8
7
8
7
7
8
10
10
10
12
7
9
9
7
3
8
5
2
6
5
6
5
2
4
5
3
0
2
4
1
2
6
3
1
2
0
1
2
-1
3
3
-4
1
-5
1
0
-1
1
1
0
-1
0
1
2
-1
-4
2
-6
-4
-7
-5
-7
-2
-7
-4
-5
-6
-6
-7
-6
-6
-6
-7
-4
-6
-4
-5
-8
-6
-9
-7
-6
-5
-6
-7
-7
-8
-8
-7
-7
-10
-9
-11
-12
-11
-13
-13
-15
-13
-16
-18
-15
-14
-11
-12
-13
-10
-12
-9
-8
-11
-8
-9
-8
-8
-10
-10
-7
-7
-6
-1
4
10
7
2
-11
-27
-51
-78
-110
-132
-146
-141
-120
-89
-62
-38
-19
-9
-5
5
7
9
11
15
13
15
14
16
16
15
12
17
15
14
15
16
13
11
10
9
10
11
7
6
8
9
5
3
4
5
2
3
-1
-5
-5
-5
-4
-6
-4
-7
-8
-7
-7
-6
-11
-12
-11
-15
-16
-17
-18
-21
-22
-20
-23
-22
-22
-23
-24
-20
-20
-19
-20
-15
-12
-8
-5
0
0
1
3
7
8
9
7
11
9
9
13
14
12
9
13
12
9
11
10
10
9
10
9
8
8
7
3
7
4
8
7
5
7
3
2
3
3
3
-1
3
2
1
2
4
4
3
3
-3
1
0
0
0
-3
-2
-1
-2
-2
2
0
1
-1
0
0
1
0
-3
-3
-2
-3
-4
-6
-4
-5
-3
-4
-4
0
-3
-2
-1
-3
-3
-6
-5
-2
-6
-7
-6
-4
-5
-7
-8
-8
-4
-5
-6
-6
-4
-4
-7
-7
-6
-4
-7
-7
-8
-8
-3
-7
-5
-11
-14
-15
-12
-10
-14
-10
-9
-7
-9
-7
-6
-6
-6
-4
-5
-4
-6
-2
-6
-6
-7
-6
-3
6
9
14
11
0
-17
-34
-60
-88
-115
-136
-141
-125
-96
-64
-43
-19
-8
-1
5
8
9
10
9
8
9
7
9
14
12
12
7
7
9
7
4
6
4
4
1
-2
-5
-5
-3
-2
-5
0
-6
-8
-6
-5
-5
-9
-8
-5
-11
-10
-9
-12
-13
-14
-13
-16
-19
-18
-19
-21
-23
-21
-23
-24
-25
-25
-24
-24
-30
-28
-30
-30
-29
-24
-26
-26
-23
-16
-14
-13
-8
-8
-7
2
2
3
1
6
7
7
5
8
11
12
9
13
7
9
9
12
10
8
11
10
3
8
6
6
6
6
8
7
7
6
6
5
3
1
5
2
0
3
-5
2
-1
-1
-3
0
2
-3
2
2
1
-2
4
-4
-3
-1
-2
-4
-4
-5
-5
1
-3
0
-2
-4
-6
-7
-1
-4
-5
-2
-4
-8
-3
-9
-7
-5
-3
-7
-5
-6
-6
-6
-6
-5
-9
-10
-8
-7
-8
-8
-11
-11
-6
-8
-5
-9
-10
-11
-12
-10
-13
-15
-15
-18
-17
-18
-16
-11
-11
-11
-11
-8
-8
-6
-6
-5
-7
-5
-7
-6
-8
-11
-6
-4
-2
4
7
11
8
-1
-16
-39
-62
-92
-118
-141
-141
-125
-97
-68
-43
-23
-12
0
4
6
9
10
8
11
10
10
7
11
10
10
10
8
7
8
6
7
3
4
3
4
1
3
4
2
2
2
1
-5
-3
-5
-5
-3
-2
-7
-9
-9
-9
-8
-8
-13
-15
-12
-13
-14
-16
-15
-21
-20
-21
-23
-21
-27
-28
-25
-26
-26
-24
-25
-26
-25
-21
-20
-18
-17
-15
-14
-8
-6
-4
-3
2
8
5
9
9
7
11
12
8
11
9
13
11
7
9
10
7
8
8
9
11
5
6
7
8
6
7
10
8
5
5
6
8
3
4
2
3
5
5
3
2
5
4
3
1
2
-2
-2
3
1
0
-1
-3
-2
-4
-2
0
-1
-2
-4
0
-4
-4
0
-3
4
1
-3
-1
0
0
-1
0
-1
1
-1
0
-3
-3
-3
-3
0
1
-3
0
4
2
1
1
1
2
-4
1
-1
-2
-2
-2
2
-5
-5
-5
-3
-6
-9
-9
-9
-8
-11
-9
-8
-6
-6
-7
-3
-2
-3
-1
-2
0
-1
-3
0
1
-2
-5
-4
4
9
13
16
14
4
-13
-31
-57
-85
-115
-132
-142
-126
-104
-75
-50
-27
-12
-4
5
4
9
9
11
12
18
14
12
11
14
13
10
12
11
7
9
9
8
9
7
8
5
6
4
4
3
6
2
1
0
-3
-5
0
-6
-5
-5
-6
-8
-9
-10
-9
-12
-12
-12
-14
-16
-15
-21
-19
-19
-22
-21
-24
-27
-27
-29
-28
-29
-25
-28
-26
-28
-28
-21
-21
-18
-12
-10
-7
0
-3
3
3
3
5
8
9
11
8
9
12
11
10
8
10
7
10
9
5
9
8
6
7
7
9
7
8
8
8
7
6
8
6
2
5
7
3
5
5
4
7
4
3
2
0
4
1
2
2
-1
2
-1
-1
-1
0
1
2
2
4
0
2
1
-3
4
5
-1
4
2
0
-5
0
2
-2
0
-2
-2
-4
0
-4
-7
-5
-4
-4
-5
-6
-1
-5
-5
0
0
-2
-4
-6
-5
-5
-7
-3
-6
-4
-5
-9
-6
-7
-6
-9
-7
-7
-7
-10
-10
-6
-6
-8
-9
-9
-6
-8
-8
-10
-10
-12
-14
-12
-14
-16
-17
-17
-13
-17
-11
-7
-10
-7
-10
-6
-8
-8
-8
-8
-8
-6
-8
-8
-9
-6
-1
3
9
9
7
-9
-26
-46
-77
-103
-124
-143
-136
-122
-94
-65
-40
-23
-10
-2
4
3
7
10
11
11
11
12
12
11
9
11
12
7
7
10
10
8
8
6
5
3
5
4
7
4
3
1
4
2
-3
-4
0
-2
-5
-5
-7
-7
-5
-7
-7
-8
-10
-13
-12
-14
-16
-14
-16
-16
-24
-23
-25
-26
-26
-27
-29
-30
-28
-29
-27
-28
-26
-24
-20
-19
-15
-13
-9
-6
-4
-3
0
2
3
6
5
5
7
8
9
8
8
11
9
10
13
12
10
10
7
11
7
9
7
9
8
7
8
12
7
6
4
3
4
6
5
5
3
5
3
5
2
1
3
2
4
-1
0
-1
3
3
3
2
2
-1
-2
1
2
0
0
-1
-3
-1
0
1
1
-1
-1
-4
2
1
0
-4
0
-6
-3
-3
-5
-2
-3
-5
-6
-8
-8
-9
-6
-9
-9
-6
-7
-9
-9
-6
-3
-4
-6
-4
-5
-7
-2
-8
-7
-5
-5
-4
-6
-5
-5
-8
-9
-9
-8
-9
-6
-8
-9
-8
-9
-10
-11
-9
-10
-15
-14
-14
-17
-19
-17
-15
-16
-12
-12
-11
-9
-11
-11
-10
-9
-12
-8
-9
-11
-12
-11
-6
-8
-5
-4
2
7
13
7
-7
-21
-40
-69
-96
-126
-144
-146
-130
-104
-75
-47
-27
-14
-7
-3
3
5
10
12
13
16
13
13
12
12
13
10
11
10
9
11
10
7
7
9
8
7
5
6
8
4
3
4
2
0
-1
-2
-5
-2
-4
-4
-5
-9
-8
-12
-11
-10
-11
-12
-12
-15
-16
-18
-19
-19
-21
-20
-23
-22
-27
-27
-23
-24
-26
-26
-24
-23
-21
-19
-18
-15
-13
-9
-5
-3
0
1
4
6
7
9
9
9
13
11
12
13
12
13
11
11
11
11
11
9
10
7
9
10
11
13
7
12
10
10
7
7
8
8
9
8
8
5
6
2
6
5
6
2
6
4
7
6
6
3
6
4
2
2
2
1
3
3
2
0
1
0
0
1
1
3
0
0
-2
-5
0
-3
-3
-4
-5
0
-5
-4
-5
-5
-3
0
-5
-3
-5
-4
-5
-5
-4
-8
-5
-3
-6
-8
-4
-9
-8
-6
-9
-9
-9
-4
-6
-5
-6
-5
-9
-5
-7
-5
-5
-7
-10
-10
-9
-8
-11
-12
-12
-13
-13
-18
-19
-18
-25
-21
-18
-14
-14
-14
-13
-10
-17
-16
-13
-11
-9
-13
-10
-8
-9
-11
-8
-5
5
6
8
-1
-12
-32
-53
-83
-112
-136
-146
-136
-112
-82
-56
-32
-18
-4
1
2
3
9
5
5
8
12
10
6
9
6
7
8
-1
5
3
1
5
2
1
3
0
-5
-2
-3
-2
-4
-4
-9
-7
-9
-7
-10
-7
-9
-11
-11
-13
-11
-14
-11
-10
-12
-17
-15
-17
-19
-19
-20
-23
-19
-25
-24
-26
-30
-30
-31
-30
-33
-33
-33
-28
-27
-26
-23
-21
-17
-13
-10
-10
-7
-6
0
0
1
5
8
7
8
10
12
11
11
8
10
8
8
7
10
7
5
9
3
5
7
5
7
5
6
3
3
4
4
4
5
8
7
6
8
4
6
5
6
8
6
7
3
5
3
2
4
3
2
5
-1
4
1
5
2
0
2
3
3
4
1
6
2
3
2
0
2
1
4
2
3
-3
-1
1
1
-2
-1
-2
0
-3
2
0
-1
2
-5
-3
-1
-3
2
-4
-2
-6
-6
0
-6
-7
-7
-13
-11
-12
-13
-12
-13
-9
-7
-6
-6
-5
-7
-6
-7
-6
-7
-4
-6
-7
-3
-8
0
-3
3
7
13
7
-4
-24
-45
-73
-98
-122
-136
-135
-119
-84
-60
-37
-23
-10
-1
4
5
8
11
12
10
12
8
11
11
10
8
8
6
8
7
8
6
4
2
4
1
4
1
-1
3
-3
1
-1
-3
-5
-5
-5
-5
-4
-5
-9
-9
-9
-13
-9
-13
-15
-14
-14
-18
-18
-16
-22
-21
-20
-27
-26
-25
-26
-27
-28
-29
-31
-28
-27
-24
-25
-20
-17
-18
-13
-10
-4
-5
-4
4
1
5
7
10
9
10
12
13
13
11
12
12
12
10
10
9
12
9
14
11
12
9
13
10
9
7
9
8
7
7
8
8
6
7
6
7
6
7
5
8
3
8
6
9
5
3
1
3
4
4
5
4
2
5
4
4
3
0
1
3
4
1
1
1
2
3
2
0
0
-1
-2
0
-1
0
-4
-3
-3
-2
-2
-4
-2
-4
-3
-5
-3
-5
-3
-2
-3
-5
-5
-9
-11
-8
-11
-11
-12
-13
-13
-11
-10
-8
-8
-8
-3
-6
-6
-6
-6
-3
-2
-7
-2
2
1
-4
0
6
12
16
11
5
-8
-31
-55
-83
-110
-133
-145
-132
-108
-75
-48
-30
-17
-4
0
8
8
8
10
13
13
10
16
15
16
12
14
13
16
13
13
13
10
9
9
9
9
10
8
3
4
6
3
3
3
2
1
-2
-5
-2
-5
-5
-4
-6
-9
-6
-9
-10
-14
-13
-12
-16
-16
-19
-19
-20
-23
-26
-26
-30
-30
-28
-28
-29
-30
-27
-25
-24
-22
-18
-14
-13
-9
-9
-6
-2
0
0
5
8
5
8
8
12
9
12
11
11
13
9
12
10
12
11
10
9
11
9
11
9
12
10
12
9
8
8
7
8
8
8
6
8
5
7
6
3
5
6
3
3
3
7
4
3
6
4
3
1
7
-1
2
4
1
3
4
0
3
-2
-3
2
1
3
4
2
-1
1
4
2
0
-3
1
-2
-3
0
0
0
-4
-2
-6
-8
-9
-8
-5
-8
-5
-6
-5
-7
-6
-6
-11
-9
-11
-12
-12
-14
-14
-13
-16
-14
-15
-13
-15
-9
-7
-10
-6
-11
-9
-7
-6
-6
-9
-9
-7
-5
-7
-3
2
9
10
10
3
-13
-29
-54
-81
-109
-133
-141
-132
-108
-79
-56
-36
-14
-4
-2
9
10
9
10
11
12
12
11
11
4
6
4
-1
0
1
-5
-2
-5
-5
-7
-4
-6
-7
-7
-6
-8
-8
-10
-10
-13
-11
-17
-12
-15
-17
-15
-21
-19
-19
-18
-23
-20
-24
-24
-25
-26
-26
-29
-29
-30
-33
-33
-36
-34
-35
-37
-39
-37
-37
-34
-37
-31
-29
-24
-23
-19
-18
-17
-9
-9
-7
-9
1
0
2
3
3
6
4
9
8
8
7
10
6
8
9
6
6
5
6
8
5
10
8
7
7
7
6
9
9
4
8
10
7
7
9
9
8
8
9
5
6
8
6
8
4
6
4
6
4
1
7
2
4
5
4
4
1
2
4
4
4
2
4
3
-1
4
2
1
3
-2
-1
1
3
-1
1
0
1
-3
0
-5
4
-4
0
-4
-3
-3
0
0
-5
-2
-5
-1
-4
-3
-2
-3
-5
-1
-3
-2
-3
1
-1
-2
-2
-2
-4
-1
-3
-5
0
-2
-4
-4
-5
-6
-4
-7
-8
-11
-10
-8
-13
-13
-8
-9
-5
-8
-6
-5
-4
-2
-2
-2
1
0
-1
-1
-5
-4
1
3
9
14
18
11
3
-13
-32
-56
-91
-117
-135
-139
-127
-98
-68
-42
-23
-10
-3
2
8
13
16
13
15
14
18
15
15
15
13
13
15
11
9
8
10
8
8
8
6
6
8
9
5
4
5
0
-2
-1
1
0
-2
-4
1
-2
-5
0
-9
-8
-7
-11
-10
-14
-12
-14
-15
-12
-16
-19
-20
-23
-22
-23
-26
-26
-26
-26
-24
-27
-28
-26
-24
-18
-20
-14
-14
-6
-6
0
1
1
8
7
7
9
9
10
10
13
12
9
11
10
11
7
12
11
11
9
14
10
12
11
9
10
9
9
7
10
7
7
8
7
5
5
6
8
5
8
4
4
6
6
8
5
5
5
7
9
6
7
5
4
3
0
3
-3
0
1
4
2
1
2
3
2
0
-1
1
4
1
-2
-2
-5
-2
-5
3
2
2
1
-3
-5
-4
-4
-5
-3
-1
-5
-7
-7
-7
-8
-4
-7
-7
-8
-6
-5
-4
-7
-7
-5
-7
-7
-7
-4
-8
-9
-6
-6
-7
-6
-7
-9
-9
-8
-7
-10
-9
-7
-10
-11
-8
-11
-11
-10
-9
-12
-13
-13
-8
-13
-11
-13
-12
-13
-15
-15
-18
-20
-17
-16
-17
-15
-13
-13
-13
-12
-11
-9
-10
-9
-11
-7
-11
-10
-11
-9
-9
0
3
12
7
2
-16
-34
-58
-84
-114
-133
-145
-137
-112
-81
-54
-32
-16
-8
-1
1
6
5
7
10
12
8
13
8
8
10
7
5
6
6
3
8
8
6
3
3
4
2
0
3
-1
0
-2
1
-2
-3
-7
-2
-7
-8
-11
-10
-9
-12
-12
-8
-14
-15
-15
-15
-18
-16
-20
-23
-20
-22
-25
-24
-26
-25
-28
-27
-25
-33
-27
-24
-27
-23
-25
-16
-19
-16
-13
-9
-7
-2
0
-1
6
5
8
6
8
7
11
9
11
10
10
10
12
11
7
9
8
9
8
9
8
10
6
8
7
8
6
6
6
6
6
4
8
5
6
7
3
5
2
4
2
0
4
1
0
2
4
0
4
-1
0
0
2
2
3
1
1
0
1
2
0
3
-1
-1
0
2
2
2
2
-1
1
0
4
-1
-2
-3
-2
-1
-2
-4
-4
-4
-7
-5
-6
-10
-6
-3
-8
-5
-6
-5
-8
-4
-8
-7
-9
-8
-5
-4
-8
-10
-9
-10
-9
-8
-7
-8
-11
-9
-9
-9
-8
-10
-10
-8
-11
-7
-8
-11
-12
-13
-11
-10
-14
-17
-15
-16
-16
-17
-21
-18
-17
-16
-13
-15
-14
-10
-12
-9
-9
-6
-11
-8
-8
-10
-11
-8
-8
0
2
7
11
9
-5
-18
-39
-65
-89
-121
-140
-145
-126
-102
-75
-49
-29
-16
-7
2
-1
3
4
5
8
4
9
7
7
7
7
8
8
7
4
6
3
2
4
1
4
2
5
1
-1
-4
0
0
-5
-4
-5
-7
-5
-7
-10
-12
-9
-11
-8
-12
-13
-14
-14
-16
-16
-21
-19
-25
-21
-24
-22
-23
-26
-25
-29
-28
-28
-30
-29
-29
-27
-28
-27
-27
-20
-18
-17
-13
-9
-10
-10
-5
-5
-1
3
6
7
8
8
8
11
10
12
12
9
12
9
11
10
8
12
8
9
12
11
10
13
13
7
11
10
9
8
4
9
5
7
9
8
3
7
6
8
8
7
5
1
5
4
2
3
2
-1
4
6
2
1
3
1
4
-3
-3
1
-1
-3
2
-1
-3
-3
-3
-5
-6
0
0
3
0
0
0
-3
-1
1
-3
2
-2
-1
0
-2
-1
0
1
-3
-4
-3
0
-5
-5
-5
-4
-3
-7
-3
-6
-5
-4
-4
-2
-3
-4
-2
-5
-4
-8
-5
-3
-4
-2
-3
-4
-5
-7
-6
-6
-8
-7
-7
-13
-9
-12
-14
-13
-16
-13
-13
-12
-10
-7
-7
-4
-6
-4
-5
-4
-7
-3
-5
-2
-2
-7
-4
0
6
11
12
11
0
-17
-40
-64
-93
-119
-138
-142
-127
-100
-75
-49
-28
-14
-2
2
8
6
8
9
12
10
12
12
12
14
12
11
10
11
9
9
8
7
8
10
9
4
4
5
3
2
2
3
4
1
0
-3
2
-5
-1
-5
-6
-8
-6
-7
-13
-7
-13
-11
-17
-15
-18
-18
-17
-20
-21
-19
-27
-25
-27
-27
-29
-28
-27
-30
-28
-27
-26
-23
-24
-22
-17
-14
-9
-7
-3
-5
4
4
7
3
7
8
10
7
12
11
10
12
9
11
10
9
10
7
13
10
12
12
12
8
8
9
5
10
7
8
5
5
6
7
9
8
7
10
7
3
7
7
3
5
5
5
7
7
4
5
5
2
2
8
5
3
2
3
3
3
1
4
2
1
3
4
3
-4
-3
1
0
1
0
3
-2
1
-3
-1
-4
-1
-3
0
-6
-5
-5
-3
-5
-5
-7
0
-5
-2
-2
-3
-5
-4
-5
-5
-6
-5
-7
-4
-5
-9
-5
-6
-6
-4
-5
-6
-5
-4
-7
-7
-7
-4
-7
-9
-6
-6
-4
-6
-4
-5
-4
-3
-8
-5
-5
-4
-4
-6
-8
-5
-6
-8
-12
-12
-16
-15
-16
-16
-14
-11
-12
-11
-8
-7
-11
-8
-8
-8
-7
-11
-8
-9
-10
-7
-7
-7
-2
3
6
7
1
-11
-26
-48
-80
-109
-130
-145
-143
-120
-89
-62
-40
-23
-11
-5
4
8
10
12
9
11
13
12
14
13
10
10
11
10
11
12
7
7
6
9
7
6
4
8
5
4
2
3
1
0
1
0
0
-5
-4
-6
-5
-6
-5
-8
-9
-8
-12
-14
-11
-13
-15
-16
-17
-18
-22
-20
-20
-27
-25
-24
-29
-29
-29
-27
-27
-27
-26
-24
-24
-20
-20
-17
-11
-13
-8
-2
2
3
2
7
7
10
9
12
12
9
10
9
11
13
12
11
7
9
10
11
9
9
9
8
6
8
6
6
4
5
5
5
8
6
3
8
3
3
6
7
5
4
4
4
6
5
3
7
3
10
8
7
5
5
7
5
4
7
4
2
3
4
3
6
6
4
3
2
3
4
3
6
3
4
5
2
2
2
1
0
-4
0
-4
-3
-4
-3
-3
-2
1
-2
0
-2
-4
-3
-5
-3
-3
-5
-1
-2
-5
-8
-6
-8
-8
-9
-9
-5
-8
-6
-7
-11
-11
-7
-10
-11
-9
-8
-9
-4
-6
-9
-8
-9
-6
-4
-9
-8
-6
-8
-10
-11
-12
-11
-8
-10
-14
-16
-19
-21
-16
-17
-19
-16
-12
-12
-11
-12
-14
-13
-13
-8
-9
-10
-11
-9
-11
-8
-7
-5
-1
1
8
11
7
-6
-23
-45
-69
-96
-123
-144
-146
-127
-101
-73
-48
-29
-14
-8
0
4
6
9
10
9
11
9
12
15
11
11
13
11
6
7
7
10
9
3
7
7
5
6
5
5
1
-3
-1
-1
-3
1
-3
-8
-3
-4
-7
-7
-6
-8
-8
-10
-15
-11
-13
-14
-15
-16
-18
-21
-21
-24
-25
-23
-25
-27
-27
-28
-31
-29
-31
-29
-27
-23
-22
-22
-20
-17
-12
-8
-7
-4
2
6
4
6
6
7
9
9
10
11
14
10
11
13
11
10
9
9
11
12
8
9
11
12
9
7
10
11
9
10
10
10
11
10
12
11
11
12
12
10
7
6
6
6
6
7
8
6
5
6
5
7
3
4
6
2
4
4
6
5
-1
2
3
3
6
5
3
5
3
1
1
2
-1
-3
1
-2
-2
1
0
-4
-3
-2
-4
0
-2
-3
-1
-4
-4
-6
-3
-6
-3
-5
0
-5
-5
-5
-4
-6
-6
-4
-9
-6
-6
-5
-4
-8
-11
-7
-10
-6
-9
-7
-8
-9
-7
-10
-9
-10
-10
-11
-10
-8
-12
-12
-13
-16
-14
-12
-12
-11
-13
-14
-17
-15
-18
-15
-12
-17
-11
-12
-11
-9
-8
-9
-7
-8
-5
-6
-7
-9
-5
-11
-4
-5
3
8
12
13
6
-11
-27
-49
-79
-108
-134
-145
-141
-116
-89
-59
-39
-24
-14
0
1
6
4
8
5
7
9
12
8
9
6
9
7
6
7
5
6
4
8
6
3
4
-1
-2
-3
-5
-8
-2
-5
-5
-4
-6
-6
-6
-8
-9
-9
-10
-10
-9
-13
-10
-17
-18
-15
-17
-18
-20
-19
-22
-26
-24
-28
-26
-25
-30
-29
-33
-28
-32
-35
-29
-30
-30
-29
-24
-20
-18
-19
-15
-10
-7
-4
-3
2
3
4
5
5
7
7
6
8
6
5
10
8
7
8
9
9
5
9
6
3
7
7
7
6
7
4
5
5
3
4
3
6
4
4
6
3
5
4
5
6
-1
3
4
2
2
1
1
0
3
3
1
1
3
4
4
0
1
0
-3
-2
2
-4
-4
-2
-4
-3
0
-3
-4
-3
-2
-3
-5
-6
-6
-6
-5
-6
-5
-6
-6
-6
-4
-9
-4
-3
-5
-3
-5
-7
-6
-3
-4
-4
-4
-4
-6
-5
-7
-9
-11
-11
-13
-11
-15
-13
-14
-15
-14
-16
-15
-15
-11
-10
-9
-8
-8
-10
-10
-5
-4
-9
-9
-4
-5
-5
-3
-3
-1
4
11
10
5
-9
-28
-52
-81
-106
-133
-141
-133
-110
-85
-57
-33
-14
-9
2
3
5
8
11
10
11
8
9
5
9
6
6
7
6
5
5
4
5
1
4
2
-2
2
0
-5
0
-3
-7
-5
-5
-4
-5
-7
-9
-8
-8
-11
-11
-8
-9
-14
-11
-13
-12
-16
-20
-20
-20
-22
-21
-27
-28
-28
-29
-31
-31
-32
-30
-31
-31
-33
-30
-28
-25
-25
-25
-18
-16
-11
-9
-7
-8
0
4
5
4
8
8
11
12
8
14
16
11
12
11
10
10
9
10
9
7
8
10
9
7
7
11
7
9
9
8
7
8
5
4
5
4
5
7
4
5
3
3
3
5
4
3
5
5
3
5
5
6
4
8
3
3
4
4
4
4
4
5
4
3
2
4
3
3
3
3
2
4
2
1
0
-3
0
0
-1
2
2
1
2
1
2
1
1
3
1
2
1
-1
-3
-6
-5
-4
-6
-6
-8
-12
-14
-11
-10
-8
-9
-4
-5
-4
-8
-5
-4
-5
-1
-5
-4
-4
-4
-4
-6
-6
1
3
7
10
8
1
-17
-37
-62
-93
-118
-141
-145
-129
-100
-73
-46
-27
-14
-5
5
8
7
10
11
12
13
14
12
15
12
12
14
10
12
10
10
12
6
5
8
7
7
3
3
6
3
4
4
3
2
3
0
-1
0
-2
-2
-5
-6
-7
-8
-11
-8
-12
-14
-13
-18
-16
-18
-22
-21
-20
-24
-26
-26
-29
-28
-30
-31
-32
-29
-31
-29
-28
-22
-20
-17
-15
-12
-10
-7
-2
6
5
7
8
9
12
12
11
14
11
14
11
13
13
16
15
13
15
11
12
11
8
9
9
7
7
10
8
9
9
12
12
7
10
7
5
7
8
7
9
7
7
8
9
6
5
4
7
6
6
7
7
5
6
6
5
3
1
4
1
2
3
4
3
1
0
3
0
1
1
1
-1
-3
-3
-3
1
-5
-1
-6
-2
-3
-5
-5
-3
-3
-4
-2
-5
-3
-7
-6
-5
-3
-4
-2
-5
-7
-6
-6
-7
-4
-9
-9
-11
-13
-12
-12
-12
-14
-12
-14
-12
-13
-12
-11
-9
-10
-8
-8
-8
-8
-7
-7
-8
-6
-4
-8
-5
-1
4
9
11
7
-5
-22
-43
-70
-96
-124
-142
-143
-129
-99
-71
-39
-25
-14
-3
3
7
10
7
10
11
12
11
12
15
14
11
13
9
11
8
7
5
6
7
8
9
3
4
4
3
4
3
3
3
1
2
-5
-3
-1
-5
-5
-5
-7
-6
-8
-11
-13
-9
-14
-13
-16
-15
-17
-18
-19
-23
-23
-24
-25
-30
-26
-28
-30
-33
-32
-30
-30
-26
-29
-22
-19
-17
-18
-13
-5
-4
-5
3
8
7
10
7
11
13
11
16
10
13
13
11
12
11
12
13
10
13
11
8
9
12
7
9
12
14
12
9
7
8
6
10
7
7
9
9
6
8
8
6
5
5
3
1
4
5
10
5
5
5
8
7
7
8
3
3
2
4
2
2
3
3
6
0
4
3
1
0
-3
-4
-3
-5
2
-3
-2
-4
0
-1
2
-1
2
-2
-6
-2
-4
-5
-2
-5
-4
-2
-5
-7
-5
-9
-5
-4
-3
-6
-9
-6
-9
-6
-7
-9
-9
-10
-7
-7
-7
-11
-11
-9
-7
-10
-11
-10
-10
-8
-11
-14
-14
-12
-17
-15
-15
-17
-14
-11
-7
-9
-9
-5
-7
0
-2
-5
-4
-4
0
-7
-7
-4
-4
1
2
6
14
12
5
-8
-21
-47
-74
-102
-127
-146
-142
-119
-95
-68
-40
-21
-10
1
3
8
11
11
10
12
15
13
11
11
15
13
12
10
10
7
7
10
7
8
6
1
6
5
4
2
4
2
1
-4
-2
-5
0
-4
-2
-5
-4
-7
-8
-9
-12
-11
-8
-12
-13
-16
-15
-19
-22
-20
-23
-22
-27
-29
-30
-31
-30
-29
-30
-30
-32
-31
-30
-27
-24
-24
-21
-17
-15
-14
-14
-9
-5
-3
-1
0
2
4
4
6
11
7
8
9
7
9
9
10
7
6
12
9
9
10
9
8
9
6
6
7
8
7
7
7
8
8
7
5
3
2
5
8
4
1
2
2
0
4
2
4
3
4
2
4
1
3
-1
1
2
2
2
0
-2
0
1
1
-2
-1
-2
-1
2
0
-2
-3
-3
-3
-4
0
-2
-3
-5
-6
-5
-7
-3
-1
-3
0
-7
-9
-6
-6
-7
-6
-7
-8
-5
-4
-8
-9
-9
-7
-9
-7
-7
-8
-7
-7
-6
-8
-10
-8
-6
-9
-9
-9
-8
-7
-10
-8
-10
-9
-15
-9
-9
-10
-10
-10
-10
-12
-12
-11
-15
-14
-12
-16
-20
-16
-20
-16
-14
-17
-12
-13
-10
-6
-7
-8
-8
-7
-5
-7
-9
-8
-7
-5
-6
1
9
11
12
4
-13
-31
-54
-82
-110
-133
-142
-135
-110
-83
-53
-34
-18
-5
2
5
5
7
9
9
8
11
12
9
8
8
8
10
8
10
5
8
6
6
3
4
3
3
1
0
1
-3
-3
-4
-4
-6
-5
-6
-9
-9
-6
-10
-9
-8
-14
-14
-15
-11
-16
-17
-18
-22
-20
-21
-23
-23
-26
-24
-27
-25
-28
-27
-30
-30
-31
-31
-27
-27
-24
-24
-21
-18
-12
-10
-8
-7
-3
-5
0
5
7
6
8
11
12
13
12
16
13
10
11
12
11
11
12
10
11
9
9
10
10
9
11
13
10
9
9
13
9
9
8
12
7
5
8
9
4
6
6
3
3
3
3
8
3
3
3
4
3
-1
2
-1
-1
0
3
2
-2
-3
0
-2
-2
-2
-1
1
-2
0
-4
-5
-6
-4
-7
-3
-3
0
-5
-1
-6
-6
-8
-7
-8
-9
-9
-11
-9
-8
-8
-10
-11
-8
-9
-13
-10
-9
-9
-9
-6
-8
-9
-8
-7
-6
-9
-7
-9
-12
-8
-10
-11
-14
-14
-18
-14
-19
-16
-18
-15
-13
-9
-10
-11
-10
-9
-10
-10
-8
-8
-6
-11
-8
-10
-8
-6
-2
1
7
12
7
-4
-19
-40
-62
-92
-121
-140
-142
-129
-105
-72
-47
-29
-15
-8
1
6
8
6
7
11
12
12
12
12
10
8
11
12
8
7
6
4
8
4
3
3
-1
1
-1
-2
-2
0
-3
0
-6
-6
-5
-7
-7
-8
-11
-9
-8
-9
-13
-12
-13
-15
-15
-16
-19
-21
-23
-22
-21
-23
-25
-25
-25
-32
-28
-29
-33
-32
-32
-30
-31
-30
-27
-26
-23
-20
-17
-14
-12
-9
-4
-3
2
4
5
11
10
9
12
16
11
13
13
14
12
12
12
9
11
9
11
13
11
10
9
7
9
8
9
12
6
8
8
5
3
6
4
6
4
1
2
7
2
4
5
3
8
3
1
2
3
4
1
0
3
4
2
1
-1
0
2
0
1
-2
-3
-4
-2
-2
-2
1
-2
-4
0
-5
-5
-7
-3
0
-2
-2
0
-3
-3
-6
-4
-3
-5
0
-2
-2
-5
1
-3
-5
-5
-5
-7
-4
-9
-7
-5
-7
-7
-5
-4
-6
-5
-4
-7
-5
-7
-8
-9
-11
-10
-9
-10
-11
-11
-13
-14
-17
-16
-16
-14
-10
-12
-13
-9
-11
-9
-7
-5
-6
-5
-6
-7
-4
-5
-7
-6
-3
6
11
14
10
4
-10
-29
-50
-82
-112
-135
-142
-135
-114
-88
-58
-36
-21
-7
2
1
5
12
11
14
9
11
10
12
15
9
13
11
9
9
8
9
5
6
7
4
8
4
2
3
2
1
-1
0
-3
0
-5
-5
-7
-2
-6
-8
-7
-8
-8
-8
-11
-13
-11
-15
-15
-15
-17
-17
-21
-21
-22
-26
-27
-27
-28
-29
-33
-32
-32
-34
-29
-29
-27
-24
-20
-20
-18
-14
-13
-9
-11
-4
3
1
2
8
8
8
9
9
6
9
11
12
10
7
8
8
9
9
9
6
11
10
10
8
9
7
5
9
10
9
7
8
9
8
8
4
8
9
3
5
4
6
5
4
4
3
8
4
2
4
2
4
5
2
3
3
4
-4
-3
1
1
2
2
0
-3
-4
2
0
0
-5
-2
2
-3
-4
-4
-6
-3
0
-3
-1
0
-2
-3
4
-1
0
-3
-5
-3
-3
-5
-2
-4
-7
-3
-6
-6
-6
-9
-8
-9
-9
-13
-10
-15
-14
-12
-16
-14
-10
-7
-6
-6
-7
-8
-7
-4
-9
-9
-6
-8
-8
-5
-3
0
4
7
9
8
2
-10
-26
-48
-76
-106
-129
-141
-141
-120
-94
-64
-41
-24
-12
-3
2
2
7
12
11
11
11
13
13
14
14
12
12
11
12
12
11
8
7
7
9
5
4
3
3
4
2
1
0
1
-1
-3
-6
-5
-4
-4
-6
-8
-10
-8
-10
-13
-13
-10
-15
-13
-18
-18
-21
-20
-22
-27
-29
-29
-29
-28
-33
-32
-30
-33
-34
-30
-27
-27
-23
-22
-19
-16
-13
-11
-5
-3
-1
-1
5
3
7
9
11
12
12
11
16
13
14
12
10
12
11
10
12
12
12
12
11
11
11
10
10
11
10
10
9
7
8
8
9
11
9
9
9
8
8
6
8
6
3
4
4
8
5
9
8
5
8
5
6
4
4
2
7
5
5
3
1
-1
2
3
0
2
4
3
2
0
3
1
2
4
2
4
0
2
0
-3
-2
-6
-6
-7
-7
-7
-10
-15
-17
-11
-11
-10
-7
-7
-5
-3
-4
-3
-4
0
0
-4
-6
-7
-6
-5
-4
-3
2
4
12
11
8
-1
-18
-38
-64
-95
-120
-136
-136
-121
-93
-66
-42
-25
-5
3
7
8
9
12
15
11
12
13
14
17
15
12
15
14
16
15
12
12
14
11
11
13
8
5
7
6
8
5
5
5
6
3
0
0
3
-1
0
-4
-2
-5
-5
-5
-7
-13
-9
-14
-10
-15
-17
-16
-16
-16
-19
-23
-22
-24
-24
-26
-27
-29
-27
-29
-26
-23
-19
-20
-16
-10
-10
-6
-2
0
3
3
5
8
8
11
12
15
15
12
14
17
13
17
14
14
13
16
13
12
11
7
13
10
11
12
9
8
7
9
8
6
6
7
6
7
8
6
5
5
4
6
6
7
5
1
4
3
6
4
2
2
1
0
0
-3
-2
0
-1
-4
-3
0
2
-2
-3
0
0
-5
-5
-4
-4
-2
-5
0
-9
-4
-4
-3
-2
-5
-5
-5
-9
-5
-7
-10
-11
-8
-8
-12
-12
-13
-7
-6
-5
-9
-7
-5
-3
-2
-5
-7
-6
-6
-7
-7
-6
-2
2
5
9
11
8
-4
-22
-46
-72
-100
-126
-139
-139
-113
-84
-61
-36
-20
-4
3
4
2
5
9
8
8
6
6
8
6
7
7
8
2
2
4
1
2
-1
0
1
2
-3
-2
-4
-5
-7
-6
-9
-7
-11
-10
-12
-13
-10
-9
-13
-16
-14
-17
-17
-16
-19
-22
-26
-29
-27
-28
-29
-29
-30
-33
-35
-34
-32
-37
-39
-39
-39
-37
-36
-37
-36
-34
-29
-28
-27
-21
-20
-13
-12
-7
-6
-5
0
-1
3
4
6
5
5
6
4
5
6
6
5
7
7
4
6
4
5
4
3
5
6
5
6
5
4
3
3
3
4
5
1
2
3
-1
1
0
0
1
-1
-2
0
-1
-3
2
2
1
2
-5
1
2
-2
1
2
0
0
-4
-3
1
-1
-4
-5
-1
-1
0
-7
-3
-3
-5
-2
-3
-2
-4
-4
0
-5
-2
-3
-5
-3
-4
-2
-4
-9
-7
-5
-7
-9
-8
-13
-13
-13
-15
-13
-10
-6
-9
-8
-9
-5
-4
-3
-2
-6
-3
-4
-2
-4
-2
2
1
5
7
13
15
5
-8
-28
-53
-80
-106
-128
-140
-132
-109
-76
-52
-29
-14
-7
-1
8
7
9
13
12
14
13
13
13
12
12
10
10
10
10
12
12
9
9
9
9
7
8
5
4
3
5
4
3
4
4
-1
-3
-3
-3
-5
0
-5
-5
-8
-6
-8
-10
-11
-12
-12
-11
-13
-20
-19
-23
-20
-23
-25
-23
-27
-29
-26
-26
-26
-24
-25
-26
-26
-23
-18
-14
-14
-8
-4
1
4
1
6
6
9
7
12
12
12
12
12
11
12
11
15
14
12
12
10
12
9
11
9
9
13
9
8
8
10
9
9
10
10
7
7
6
8
7
7
9
5
5
4
4
3
5
3
5
7
3
5
2
3
4
1
-2
0
2
1
-2
0
-1
-5
-5
-3
-4
-3
-3
-5
-3
-6
-4
-5
-6
-5
-6
-6
-5
-8
-2
-4
-3
-5
-5
-7
-6
-9
-7
-5
-7
-8
-6
-5
-7
-7
-5
-7
-4
-5
-8
-10
-9
-6
-9
-10
-11
-14
-11
-12
-13
-15
-11
-10
-10
-8
-9
-7
-5
-5
-4
-7
-4
-6
-5
-11
-6
-8
-5
-2
4
7
14
14
11
-1
-18
-41
-65
-96
-125
-139
-140
-121
-96
-65
-40
-22
-10
-2
2
6
6
11
13
11
13
13
14
11
13
12
11
9
10
13
11
10
11
11
9
10
10
9
10
6
6
5
4
3
3
-2
1
-3
-3
-2
-5
-6
-5
-6
-5
-9
-8
-8
-10
-14
-13
-12
-13
-16
-16
-19
-21
-22
-21
-22
-23
-26
-28
-28
-25
-27
-26
-23
-23
-19
-16
-16
-15
-11
-7
-3
0
-1
4
5
8
9
14
12
10
10
14
12
14
14
12
14
13
11
12
11
10
12
12
7
11
12
14
11
9
8
8
8
8
8
6
6
4
7
6
6
3
8
5
4
3
-1
4
3
2
4
2
-2
-1
2
-1
1
-2
-3
-2
-4
0
-3
-5
-2
-3
-4
-3
-1
2
-3
-3
0
-5
-4
-5
-4
-2
-4
-2
0
-4
-3
-5
-3
-7
-3
-4
-5
-6
-7
-5
-5
-7
-7
-10
-5
-6
-8
-8
-9
-9
-6
-7
-6
-9
-5
-6
-6
-9
-9
-8
-9
-8
-14
-10
-17
-14
-16
-15
-14
-12
-11
-9
-4
-7
-4
-5
-6
0
-9
-8
-9
-8
-8
-11
-7
-4
-7
1
10
9
3
-4
-22
-42
-72
-100
-127
-143
-141
-121
-92
-63
-39
-23
-11
-7
-1
1
3
6
2
6
5
3
4
6
4
6
3
3
5
3
4
5
7
3
0
-1
-1
-1
-2
-4
-4
-7
-5
-4
-4
-11
-7
-7
-6
-9
-11
-12
-10
-14
-13
-14
-18
-15
-14
-17
-18
-16
-23
-25
-26
-28
-26
-27
-29
-29
-29
-28
-33
-29
-32
-31
-31
-29
-26
-26
-25
-20
-16
-12
-8
-9
-7
-4
-4
-1
4
5
5
5
6
4
11
9
9
8
5
8
10
8
9
8
5
3
5
8
4
4
6
8
6
4
2
2
0
0
2
2
4
-1
2
0
2
2
-1
-1
2
2
4
0
2
0
2
5
3
1
2
-2
0
3
2
0
0
-4
-4
0
0
3
-3
-1
2
-3
-3
-1
-3
-4
-1
-5
-5
-4
-5
-2
-9
-6
-6
-6
-4
-7
-7
-6
-4
-6
-9
-7
-8
-12
-8
-5
-5
-11
-9
-7
-9
-9
-7
-11
-11
-9
-11
-13
-12
-12
-15
-14
-16
-16
-16
-12
-11
-13
-9
-7
-11
-5
-9
-6
-9
-9
-8
-7
-5
-7
-6
-5
1
9
7
9
4
-7
-24
-48
-73
-105
-127
-141
-139
-120
-94
-63
-40
-19
-11
-5
2
4
9
9
9
11
12
15
12
13
13
11
12
10
12
10
10
9
6
7
10
7
6
8
8
5
5
5
5
4
2
0
-4
-2
-6
0
-5
-6
-8
-9
-6
-8
-10
-11
-13
-12
-13
-15
-15
-20
-19
-20
-23
-23
-30
-24
-27
-24
-27
-28
-31
-32
-29
-24
-25
-21
-18
-16
-11
-11
-6
-2
3
3
6
6
8
10
10
11
12
12
9
12
10
9
12
10
8
10
11
6
9
11
10
8
13
9
10
9
8
8
7
7
6
7
5
5
7
4
6
4
8
7
8
6
6
7
5
5
6
3
2
5
3
3
4
5
4
4
3
4
7
4
6
4
5
4
3
-1
1
3
1
1
-4
1
2
0
-2
-4
-2
-2
-1
0
-3
0
-4
-5
-5
-5
-3
-3
-4
-6
-5
-2
-2
2
-5
-5
-5
-7
-4
-4
-5
-5
-6
-5
-6
-4
-5
-10
-6
-10
-8
-13
-12
-15
-16
-19
-16
-16
-16
-15
-11
-9
-8
-8
-7
-8
-5
-7
-6
-9
-7
-5
-6
-7
-7
-4
6
9
11
8
-1
-17
-33
-58
-89
-112
-137
-144
-131
-111
-79
-51
-34
-17
-7
1
5
7
11
14
14
13
19
18
15
17
13
14
13
16
14
16
10
12
11
11
9
11
7
8
4
6
6
3
4
1
0
0
-1
-2
-5
2
-4
-2
-7
-5
-10
-7
-12
-13
-13
-13
-14
-14
-17
-14
-16
-16
-21
-21
-22
-22
-25
-24
-27
-28
-30
-28
-26
-28
-23
-21
-20
-14
-12
-10
-8
-4
-1
0
2
4
3
6
8
9
10
11
10
7
10
7
11
11
9
10
9
8
8
9
8
8
8
8
8
7
7
8
6
7
6
8
7
9
8
8
4
5
1
5
4
5
3
4
4
3
2
0
2
2
2
-1
2
4
0
-2
2
2
1
0
-1
1
-1
0
-3
-1
-1
-5
-6
-5
-5
-3
-1
-5
-3
-4
-6
-6
0
-3
-1
-2
-2
-5
-4
-6
-3
-4
-7
-7
-4
-4
-3
-9
-4
-4
-6
-6
-5
-4
-4
0
-2
-3
-5
-2
-2
-5
-5
-6
-7
-7
-7
-5
-8
-6
-13
-11
-8
-13
-13
-8
-10
-7
-5
-7
-3
-5
0
-5
1
2
-3
-3
0
2
2
-2
1
6
12
14
16
7
0
-15
-37
-65
-94
-117
-136
-133
-117
-87
-63
-35
-18
-7
2
4
6
10
9
7
12
13
14
17
14
16
9
11
13
10
10
9
10
7
8
5
5
4
2
1
-1
-2
4
2
2
-2
-3
-5
-2
-5
-6
-7
-5
-10
-6
-9
-10
-12
-14
-12
-17
-15
-18
-16
-19
-20
-21
-21
-22
-24
-25
-27
-26
-30
-29
-27
-28
-25
-25
-22
-25
-23
-19
-21
-12
-10
-5
-5
-1
2
4
1
1
7
3
8
6
7
7
7
8
9
8
11
9
10
8
6
9
8
8
5
7
8
7
7
6
6
5
5
6
5
6
7
4
4
4
5
3
6
-1
4
-3
-1
-2
-5
-2
-1
1
1
1
-2
-3
-4
1
-5
-6
-5
-4
-3
-7
-5
-4
-8
-8
-9
-5
-6
-8
-5
-4
-6
-6
-8
-6
-6
-8
-8
-8
-10
-9
-9
-9
-9
-10
-9
-10
-10
-11
-7
-10
-8
-9
-10
-7
-10
-10
-9
-9
-13
-13
-10
-13
-13
-14
-15
-17
-19
-17
-16
-14
-12
-13
-10
-11
-8
-11
-10
-9
-9
-9
-8
-8
-6
-7
-8
-1
6
9
7
3
-8
-24
-49
-78
-104
-129
-142
-133
-113
-84
-58
-36
-19
-7
-5
4
6
2
6
8
8
9
10
9
9
7
6
6
7
7
7
7
5
8
4
4
2
4
2
-2
-1
-1
1
-3
-4
0
-5
-6
-3
-6
-7
-11
-9
-10
-12
-11
-13
-14
-17
-14
-18
-19
-19
-23
-23
-24
-24
-26
-27
-28
-27
-29
-33
-30
-34
-32
-33
-30
-28
-28
-26
-23
-21
-15
-16
-10
-11
-6
-5
0
2
2
4
8
8
9
8
8
8
10
10
7
7
6
8
7
9
7
6
7
7
4
6
7
5
6
6
5
7
8
4
6
5
1
5
5
4
4
5
5
3
4
1
3
1
3
4
3
4
2
5
2
5
3
2
3
3
4
-2
4
3
1
2
2
1
-1
-1
-1
1
0
-2
-2
1
-1
-3
-2
1
-3
-1
-5
-3
-5
-2
-4
-3
-5
-5
-6
-5
-4
-4
-5
-7
-6
-3
-9
-8
-9
-5
-4
-9
-11
-10
-12
-13
-11
-10
-10
-8
-8
-5
-5
-5
-2
-5
-5
-3
-4
-3
-4
-5
-7
-4
1
2
7
10
11
3
-14
-30
-52
-84
-110
-132
-139
-134
-108
-81
-54
-31
-17
-4
3
4
8
11
11
14
15
16
14
15
16
15
12
12
15
13
13
14
10
10
8
9
7
8
3
5
3
7
3
3
2
2
-1
1
-5
-3
-4
-7
-5
-4
-6
-8
-10
-12
-14
-17
-18
-19
-20
-19
-20
-20
-23
-24
-25
-24
-27
-27
-26
-25
-28
-30
-28
-29
-28
-22
-25
-20
-16
-14
-10
-10
-7
-4
0
0
3
5
4
8
12
8
10
11
9
16
12
12
10
7
9
7
7
11
7
9
7
9
8
9
10
7
9
9
10
7
8
8
9
8
7
8
8
8
5
7
8
3
8
6
8
3
3
4
-1
2
5
3
4
-1
1
1
1
4
4
1
3
0
2
-2
1
0
3
0
0
-2
0
1
-3
-2
-7
-5
-5
-4
-1
-5
-5
-5
-5
-3
-4
-3
-2
-2
-4
-1
-2
-4
-5
-5
-4
-7
-9
-8
-12
-8
-9
-17
-12
-14
-11
-11
-10
-5
-6
-7
-8
-4
-6
-7
-7
-4
-8
-7
-5
-7
-5
-3
3
9
9
12
4
-9
-25
-48
-78
-104
-131
-145
-141
-118
-90
-63
-37
-22
-7
-3
3
4
9
6
10
11
12
11
8
10
11
8
10
10
9
8
7
7
3
6
5
1
2
3
0
0
2
0
-3
1
0
-7
-6
-6
-8
-6
-8
-8
-13
-10
-9
-15
-16
-14
-17
-16
-15
-18
-16
-16
-21
-23
-25
-28
-28
-31
-30
-31
-28
-30
-30
-29
-29
-26
-24
-21
-18
-17
-12
-10
-7
-5
-2
-3
3
2
6
8
7
7
10
13
10
12
10
9
9
9
9
9
10
9
10
7
12
9
8
7
6
5
8
8
7
10
8
7
9
8
7
7
8
6
5
7
8
3
8
3
1
3
5
2
5
3
6
5
8
4
6
5
2
4
2
3
5
3
3
0
3
3
4
4
3
3
2
4
1
3
-2
1
2
4
3
0
0
0
-5
-1
-4
-3
-2
-4
-2
-5
-4
-4
-7
-6
-6
-6
-7
-9
-9
-13
-11
-13
-10
-10
-10
-6
-7
-5
-5
-5
-5
-5
-4
-2
-7
-5
-4
-2
-3
-5
3
3
11
14
11
0
-11
-33
-55
-83
-110
-131
-137
-129
-105
-74
-45
-26
-12
-7
2
5
8
7
7
12
11
7
10
11
12
11
8
6
5
3
6
3
4
5
2
-1
0
-2
-5
-5
-5
-3
-5
-5
-9
-7
-6
-9
-8
-8
-13
-10
-13
-15
-14
-17
-17
-18
-20
-21
-20
-21
-21
-25
-24
-25
-29
-28
-29
-28
-33
-32
-35
-33
-34
-34
-33
-32
-30
-30
-29
-22
-18
-15
-15
-11
-8
-6
-3
3
3
2
3
6
4
6
5
6
6
9
8
8
9
9
7
9
10
8
10
9
8
7
5
6
5
3
5
6
1
3
4
6
2
4
4
8
4
4
3
3
2
3
-1
2
3
2
0
-1
3
2
0
1
2
1
-1
-1
-4
-3
-5
-2
-5
-2
1
-4
-2
-6
-6
-3
-4
-5
-3
-3
-6
-6
-4
-5
-3
-5
-10
-7
-6
-10
-10
-11
-10
-13
-11
-11
-17
-17
-16
-18
-19
-16
-17
-16
-13
-10
-10
-13
-10
-9
-9
-9
-5
-7
-7
-9
-9
-4
-6
-3
-1
6
10
12
7
-4
-19
-40
-68
-98
-124
-140
-134
-117
-91
-60
-37
-20
-7
-2
1
5
8
7
11
9
11
10
7
8
7
6
5
3
6
6
5
3
6
5
2
2
-1
-1
-1
-1
-4
-2
-2
-2
-5
-6
-4
-7
-7
-8
-6
-7
-8
-8
-10
-11
-13
-16
-13
-13
-17
-18
-17
-19
-20
-22
-24
-20
-26
-27
-31
-28
-27
-33
-27
-28
-29
-27
-24
-25
-23
-18
-16
-12
-9
-7
-1
-3
0
2
5
4
7
8
7
6
10
7
8
12
9
11
11
8
6
9
10
8
7
8
7
10
8
8
5
3
8
7
3
5
4
-1
4
7
6
4
3
4
6
4
3
5
6
7
6
5
6
8
5
4
4
4
3
4
3
2
3
2
2
2
-1
5
2
1
2
-5
3
1
-2
-3
0
-2
-4
0
-4
-5
-2
-2
-4
0
-2
-1
-4
-3
-3
-6
0
-2
-5
-6
-7
-8
-10
-13
-12
-12
-14
-10
-3
-5
-3
2
-3
2
-2
-2
-2
0
-3
-1
-2
-2
1
1
1
8
13
15
11
6
-14
-32
-57
-87
-112
-135
-136
-128
-99
-70
-43
-27
-11
-1
6
10
13
15
16
13
16
14
16
15
11
16
13
14
13
12
11
10
10
10
8
10
10
7
5
6
5
6
6
3
4
2
2
1
-1
2
2
-3
-5
-4
-5
-9
-4
-8
-7
-12
-13
-15
-15
-15
-21
-19
-22
-22
-19
-26
-26
-25
-28
-28
-26
-26
-27
-24
-21
-20
-17
-17
-11
-6
-8
-8
1
1
4
4
5
11
6
8
11
11
7
11
10
9
8
7
10
9
8
5
9
9
6
8
6
8
6
10
6
7
6
8
8
6
5
7
6
5
4
6
5
3
5
3
4
1
2
3
2
6
2
-1
2
1
-3
-4
1
1
-1
0
-4
1
-3
-5
0
-3
-5
-3
-7
-9
-5
-5
-5
-6
-7
-7
-5
-5
-5
-5
-3
-4
-4
-9
-4
-7
-6
-6
-4
-8
-7
-9
-8
-4
-9
-10
-8
-6
-9
-10
-15
-12
-12
-13
-16
-16
-18
-17
-20
-18
-14
-14
-8
-10
-11
-6
-8
-11
-9
-12
-8
-10
-9
-8
-5
-6
-5
-3
1
6
10
11
5
-10
-29
-57
-82
-108
-132
-143
-135
-108
-85
-48
-28
-17
-3
6
9
9
9
14
12
15
14
11
16
16
14
15
13
16
11
13
8
10
10
10
9
8
8
8
3
8
8
3
1
4
4
-2
1
-1
-5
-2
-5
-6
-6
-6
-7
-11
-13
-12
-14
-13
-13
-16
-18
-18
-20
-20
-23
-22
-27
-27
-25
-27
-28
-26
-30
-28
-26
-27
-23
-24
-20
-16
-15
-7
-11
-7
-5
4
1
4
9
7
8
9
11
12
11
11
9
11
9
10
11
9
12
10
10
8
7
7
10
8
7
6
8
7
8
8
7
8
5
7
4
5
6
7
4
4
3
3
5
5
3
6
7
4
3
3
1
0
4
4
2
4
3
3
-1
3
3
4
3
0
2
3
1
3
0
1
0
-3
-3
0
-5
2
-2
-4
-5
-4
-5
-4
-6
-7
-5
-4
-2
-4
-3
-5
-4
-7
-7
-5
-5
-4
-6
-5
-8
-7
-10
-8
-11
-10
-7
-9
-8
-12
-12
-11
-14
-17
-15
-13
-13
-10
-11
-11
-10
-9
-5
-8
-7
-9
-5
-9
-8
-8
-12
-8
-6
-1
2
7
12
8
-2
-20
-39
-63
-92
-121
-142
-144
-127
-97
-69
-44
-25
-13
-6
-1
2
2
8
6
8
5
5
5
6
7
4
5
5
4
4
4
3
5
8
4
3
-4
1
-1
0
-5
0
2
-3
-4
-6
-6
-8
-8
-9
-10
-8
-10
-12
-13
-14
-13
-12
-16
-19
-19
-18
-20
-21
-23
-23
-25
-26
-27
-26
-29
-27
-30
-32
-32
-30
-33
-31
-27
-24
-23
-21
-16
-12
-9
-7
-9
-5
0
3
3
4
6
8
9
9
10
12
11
10
8
9
11
8
7
8
8
9
9
8
11
10
5
6
8
3
3
7
7
5
4
4
2
5
2
3
2
1
1
5
2
2
0
4
2
0
-2
3
-1
2
4
2
2
3
0
2
2
1
3
3
-3
2
-1
-6
1
2
-5
0
1
-7
1
-5
-2
1
-3
-1
-3
-4
-5
-1
0
-5
-3
-6
-5
-5
-4
-5
-5
-5
-6
-9
-5
-3
-7
-7
-4
-6
-6
-7
-4
-9
-4
-7
-5
-6
-8
-13
-14
-15
-16
-16
-12
-12
-8
-9
-9
-6
-7
-6
-9
-10
-8
-5
-7
-8
-7
-7
-7
-2
2
8
11
12
5
-5
-25
-47
-74
-98
-128
-142
-141
-120
-92
-60
-41
-22
-8
-3
4
3
10
10
11
11
13
11
15
11
12
13
13
9
12
12
8
12
8
7
6
8
7
7
2
4
3
1
1
2
1
-3
0
-4
-1
-6
-6
-4
-6
-8
-10
-11
-6
-10
-13
-13
-13
-16
-16
-20
-17
-18
-21
-24
-25
-25
-27
-29
-29
-29
-28
-29
-24
-29
-27
-24
-23
-20
-17
-11
-8
0
-1
-3
2
-1
6
8
9
9
10
10
11
13
14
12
15
14
16
14
14
15
11
9
13
13
14
12
11
9
11
9
9
9
9
7
6
6
9
8
9
8
5
8
7
8
9
5
8
2
6
7
4
5
4
6
4
6
2
1
2
1
0
3
2
2
0
0
2
-1
0
0
1
-6
0
-5
-4
0
-2
-3
-5
-6
-3
-4
-4
-5
-9
-4
-6
-7
-5
-7
-8
-8
-10
-8
-7
-10
-5
-6
-9
-9
-8
-9
-11
-6
-9
-4
-7
-7
-7
-9
-4
-6
-9
-7
-12
-11
-10
-12
-14
-12
-12
-15
-14
-20
-16
-16
-12
-13
-12
-7
-9
-9
-9
-5
-11
-7
-10
-9
-7
-10
-5
-8
-5
-2
4
9
10
2
-8
-29
-43
-75
-98
-127
-142
-146
-127
-103
-70
-46
-28
-14
-7
2
4
6
9
9
8
11
11
9
12
10
9
8
7
9
8
7
8
7
8
7
6
8
8
2
4
3
2
-1
-3
-4
-5
-5
-3
-6
-5
-7
-5
-6
-8
-9
-7
-10
-9
-12
-12
-15
-16
-16
-19
-20
-20
-22
-20
-25
-25
-26
-25
-27
-29
-29
-27
-28
-24
-24
-21
-20
-16
-15
-14
-8
-8
-3
-2
3
4
5
5
12
9
8
11
9
7
11
9
9
13
10
16
12
10
9
7
11
7
10
5
8
7
9
10
5
8
7
8
5
6
3
9
3
8
4
5
4
6
9
3
6
7
5
4
2
4
4
4
-1
1
4
2
1
-1
4
2
2
2
-2
-1
-3
1
-2
-1
-4
-2
-2
-3
-5
-7
-5
-4
-9
-5
-4
-5
-7
-4
-6
-5
-3
-7
-8
-7
-6
-9
-6
-5
-8
-6
-6
-7
-10
-9
-6
-9
-6
-8
-9
-8
-6
-9
-5
-6
-6
-9
-7
-9
-6
-8
-9
-11
-12
-12
-10
-12
-8
-8
-10
-13
-13
-18
-13
-18
-15
-15
-13
-13
-9
-9
-7
-8
-5
-9
-7
-7
-6
-8
-10
-5
-6
-5
0
9
9
12
9
1
-13
-32
-61
-93
-119
-137
-140
-128
-101
-71
-44
-22
-8
0
-2
6
8
11
9
13
9
10
9
11
12
8
10
12
8
10
8
6
9
7
6
8
5
3
4
3
5
5
3
2
0
-5
-1
-5
-7
-4
-5
-8
-6
-9
-9
-11
-11
-11
-12
-12
-16
-15
-18
-18
-19
-19
-16
-21
-20
-25
-28
-30
-28
-29
-27
-28
-28
-27
-27
-24
-22
-22
-17
-14
-11
-10
-5
-3
-2
3
6
11
8
9
13
11
12
9
9
8
11
10
14
10
11
8
11
8
9
11
10
8
6
6
7
6
7
8
7
9
7
7
7
6
6
5
6
8
6
7
7
8
6
6
6
7
6
5
5
1
2
0
2
3
-1
1
-1
1
1
-2
0
-2
4
-2
1
4
1
0
0
-5
-3
-3
-2
-4
-4
-2
-1
1
-2
-2
-4
-9
-6
-7
-5
-5
-6
-5
-5
-4
-3
-9
-2
-3
-5
-8
-5
-4
-4
-6
-4
-9
-7
-7
-10
-8
-8
-9
-7
-9
-10
-12
-11
-16
-13
-14
-18
-14
-14
-13
-11
-10
-10
-10
-8
-8
-9
-9
-9
-8
-7
-6
-7
-9
1
6
11
15
7
-7
-23
-44
-70
-99
-124
-141
-138
-117
-90
-61
-38
-20
-9
-1
4
5
7
8
7
6
10
9
11
10
6
8
5
5
5
5
5
6
3
5
1
3
1
2
3
-1
0
-2
-2
-4
-5
-5
-5
-6
-6
-7
-5
-9
-10
-13
-9
-13
-13
-12
-12
-16
-15
-16
-20
-18
-21
-25
-24
-25
-28
-29
-26
-28
-28
-32
-32
-31
-28
-29
-24
-25
-21
-21
-17
-17
-10
-10
-4
-4
4
3
4
2
6
6
6
8
9
6
8
10
5
7
7
8
4
9
7
3
5
4
3
7
7
8
5
4
6
5
8
4
2
3
8
6
2
2
5
3
3
4
3
2
1
4
4
1
4
4
4
3
-1
-1
0
4
-1
1
1
0
-2
-1
-1
-3
-3
0
-3
-7
-6
0
-2
-3
-7
-5
-5
-3
-5
-4
-7
-5
-4
-5
-4
-7
-5
-7
-6
-9
-5
-3
-8
-6
-9
-8
-7
-7
-9
-7
-7
-9
-7
-8
-7
-10
-9
-11
-13
-11
-13
-15
-14
-14
-19
-15
-13
-14
-11
-8
-11
-8
-9
-8
-8
-6
-8
-6
-6
-4
-5
-7
-5
2
4
8
11
8
-4
-20
-46
-70
-99
-127
-140
-147
-124
-98
-66
-42
-23
-14
-3
-2
2
9
10
13
12
10
16
13
12
18
10
12
10
8
6
8
7
6
6
3
5
3
0
0
2
1
-1
-5
-2
-3
-5
-6
-6
-5
-8
-8
-7
-8
-8
-4
-9
-13
-14
-13
-15
-15
-15
-17
-20
-21
-19
-20
-23
-22
-25
-26
-26
-28
-30
-29
-27
-33
-26
-23
-23
-18
-19
-15
-13
-7
-9
-3
-5
2
4
2
10
12
12
14
14
16
17
13
13
12
12
12
12
11
9
12
14
13
13
9
11
12
12
7
11
8
11
9
8
11
9
10
10
9
9
8
8
8
7
5
4
5
7
8
5
2
6
3
-1
2
3
5
8
5
5
3
1
4
3
5
-1
0
-1
2
2
0
0
1
2
0
-3
-1
-5
-3
-8
-3
-3
-2
-7
-6
-5
-6
-5
-4
-7
-6
-5
-3
-4
-2
-6
-6
-7
-4
-8
-4
-7
-5
-9
-9
-6
-7
-8
-13
-8
-12
-10
-11
-13
-18
-16
-17
-16
-16
-13
-17
-9
-12
-8
-7
-10
-8
-9
-7
-5
-9
-7
-5
-6
-9
-5
2
4
9
10
7
1
-12
-36
-56
-85
-114
-134
-142
-132
-106
-80
-54
-30
-16
-5
2
5
6
11
12
11
11
16
16
14
13
16
11
10
9
10
8
8
7
8
3
8
3
4
4
3
0
4
2
3
-2
0
-5
-8
-4
-5
-6
-5
-7
-7
-12
-7
-9
-13
-11
-13
-14
-15
-16
-17
-16
-17
-19
-22
-22
-25
-24
-24
-25
-26
-32
-29
-32
-31
-30
-33
-25
-23
-19
-18
-15
-14
-11
-11
-6
-2
1
3
5
1
5
7
7
8
9
8
9
8
5
9
7
6
10
8
8
8
7
7
10
9
4
11
8
7
10
7
5
6
6
8
7
5
6
5
4
4
7
4
5
6
4
6
7
6
5
9
5
4
5
7
6
3
5
4
3
5
3
3
7
4
3
6
6
3
1
3
1
3
2
-1
2
1
-2
-2
-2
0
1
0
2
0
3
0
0
0
0
-2
-3
0
-2
-3
-2
-2
-3
-3
-3
-3
-4
0
-7
-2
-4
-5
-9
-5
-4
-4
-7
-6
-9
-8
-11
-10
-11
-12
-9
-4
-6
-5
-3
-6
0
-4
-5
-3
-4
-1
-5
-5
-8
-4
-5
5
11
13
13
3
-11
-28
-57
-82
-111
-134
-140
-135
-109
-80
-54
-29
-12
-5
4
8
11
10
14
12
14
14
13
9
10
12
12
11
13
9
11
9
8
7
10
7
7
8
5
4
6
3
3
0
2
0
2
0
-2
-7
-4
-5
-8
-9
-8
-9
-9
-13
-13
-12
-16
-16
-17
-18
-16
-16
-23
-23
-24
-22
-25
-29
-31
-28
-30
-31
-31
-28
-27
-25
-22
-21
-21
-16
-14
-11
-10
-6
-4
2
1
5
8
6
9
7
12
7
10
10
13
12
10
9
11
9
8
10
10
8
10
9
9
8
9
3
3
3
3
6
2
5
5
5
5
2
4
3
2
5
5
-1
4
-1
2
4
5
0
2
1
-2
-3
1
-2
1
2
1
-3
1
-2
0
1
-2
-4
-1
-3
-1
-6
0
-1
-3
-7
-7
-6
0
-4
-4
-6
-4
-7
-9
-9
-9
-6
-6
-7
-8
-10
-9
-11
-9
-8
-10
-13
-12
-9
-11
-11
-11
-14
-14
-12
-14
-15
-15
-18
-21
-21
-19
-17
-16
-16
-15
-10
-11
-9
-7
-7
-7
-9
-9
-8
-6
-6
-6
-7
-5
-2
2
9
14
11
2
-13
-30
-55
-89
-114
-139
-145
-132
-108
-76
-51
-29
-14
-8
-1
2
4
5
5
5
8
10
8
10
7
7
7
6
6
5
8
3
4
-1
4
1
1
-1
0
-4
-3
-2
-4
-5
-3
-8
-7
-11
-10
-9
-10
-10
-11
-10
-10
-13
-12
-16
-19
-18
-18
-20
-21
-22
-25
-27
-25
-26
-29
-31
-30
-34
-33
-34
-32
-34
-34
-31
-33
-28
-27
-22
-21
-20
-15
-10
-9
-6
-3
1
1
8
3
6
7
6
10
5
6
9
10
6
8
10
6
7
7
5
6
6
3
3
6
3
3
6
6
1
6
3
4
5
5
4
1
-1
1
3
2
3
3
4
6
4
2
2
2
2
2
1
4
1
-1
4
2
2
0
-1
2
-1
2
1
2
0
2
-2
-4
-3
-2
-2
-3
-5
-2
-3
-3
2
-5
-1
-4
-3
-2
-5
-3
-4
-5
1
-2
-5
0
-1
-5
-2
-5
-7
-7
-8
-8
-7
-11
-9
-15
-13
-12
-12
-11
-10
-8
-8
-9
-5
-9
-8
-5
-6
-8
-5
-6
-7
-7
-7
-3
3
12
13
10
3
-9
-28
-51
-85
-113
-133
-144
-135
-114
-84
-54
-31
-14
-7
0
4
4
9
10
12
9
11
12
10
11
12
11
10
12
7
10
9
11
7
8
8
7
4
6
7
6
2
2
2
-1
1
0
-2
0
-2
0
-5
-6
-8
-9
-8
-11
-10
-12
-14
-13
-17
-18
-19
-21
-23
-20
-22
-26
-27
-28
-26
-27
-32
-28
-28
-30
-26
-28
-25
-24
-21
-18
-16
-14
-9
-5
-2
-1
0
3
7
8
11
10
14
15
14
16
14
14
14
16
14
12
15
7
10
12
13
8
12
12
11
8
7
9
8
8
7
5
8
5
5
4
6
7
5
5
3
3
5
7
6
3
6
5
5
6
4
3
2
3
2
4
4
1
1
4
1
3
6
3
3
-1
5
-2
2
1
2
0
2
3
2
1
2
-2
1
-3
1
-2
-2
-5
0
-2
-7
-6
-5
-5
0
-6
-5
-5
-5
-4
-5
-9
-10
-9
-11
-7
-9
-13
-14
-12
-17
-14
-13
-11
-10
-7
-7
-7
-4
-8
-4
-6
-5
-5
-4
-4
-4
-2
-2
-1
7
9
11
12
3
-12
-32
-57
-82
-114
-140
-147
-137
-114
-88
-57
-37
-18
-9
0
3
7
10
8
8
12
8
7
9
10
12
11
12
9
9
8
10
8
8
7
5
4
4
1
4
6
3
4
0
2
1
0
0
-6
-5
-8
-10
-9
-9
-6
-11
-11
-14
-13
-14
-18
-15
-17
-19
-21
-21
-24
-24
-25
-33
-31
-27
-30
-29
-31
-30
-31
-30
-27
-24
-18
-22
-14
-13
-12
-7
-6
-3
0
3
2
5
10
8
9
11
12
9
9
9
10
7
10
8
5
7
8
8
7
7
9
10
6
11
10
5
8
7
6
7
8
3
6
6
3
9
5
7
7
4
6
7
6
5
3
7
4
5
2
4
3
6
6
3
-2
3
4
6
1
2
3
-1
3
2
2
0
4
1
2
-3
-1
2
3
2
-3
1
3
3
1
3
4
2
0
1
-2
-2
0
-2
-3
2
-1
-1
-1
-3
0
-5
-5
-4
-2
-2
-6
-7
-7
-6
-6
-8
-8
-9
-6
-10
-12
-11
-15
-15
-18
-13
-18
-17
-13
-15
-10
-10
-8
-10
-7
-7
-8
-9
-9
-9
-8
-8
-10
-8
-5
-3
8
13
9
3
-11
-28
-48
-80
-108
-131
-139
-137
-112
-87
-58
-36
-18
-7
2
3
8
8
9
11
9
12
11
12
12
7
7
7
9
9
7
10
9
6
7
8
3
5
2
5
5
2
0
-2
-5
-3
-4
-3
-4
-9
-6
-9
-8
-9
-13
-13
-9
-11
-13
-14
-15
-17
-18
-20
-21
-22
-24
-26
-25
-24
-27
-32
-30
-33
-31
-33
-31
-29
-31
-27
-25
-22
-20
-17
-12
-11
-6
-5
4
-1
4
5
7
8
7
9
9
8
9
9
7
7
6
8
8
9
7
6
5
7
6
7
8
5
6
7
5
7
8
3
4
3
3
7
6
3
3
7
3
6
5
5
11
4
3
4
0
2
3
2
2
4
3
1
3
3
4
-3
-2
0
0
-2
-2
-2
-2
-2
1
-1
-4
0
1
-4
-4
-5
-5
-4
-4
-5
-8
-3
-2
-7
-4
0
-4
-4
0
-4
1
-6
-5
-5
-5
-9
-7
-5
-10
-7
-6
-9
-10
-6
-8
-9
-8
-12
-9
-6
-10
-8
-8
-8
-11
-11
-11
-11
-11
-14
-16
-14
-15
-12
-14
-10
-8
-9
-10
-10
-7
-4
-6
-10
-4
-7
-6
-4
-5
-1
1
6
11
11
13
-2
-19
-40
-60
-94
-118
-136
-142
-124
-98
-69
-41
-24
-9
-6
2
8
7
5
7
12
9
10
8
11
11
7
8
7
7
7
8
5
6
3
3
3
5
5
3
2
0
-3
-2
-6
-6
-6
-9
-8
-7
-11
-12
-10
-11
-13
-14
-14
-12
-16
-17
-18
-20
-23
-21
-24
-26
-27
-28
-26
-28
-31
-33
-30
-32
-37
-37
-35
-32
-35
-32
-30
-29
-24
-22
-18
-16
-13
-11
-9
-4
-6
0
3
3
9
7
9
10
11
11
12
10
10
9
12
8
8
8
9
11
8
8
10
8
9
8
6
7
5
10
7
8
8
7
7
5
8
7
7
7
9
7
8
8
8
4
4
5
3
2
5
3
5
5
2
5
5
5
6
0
8
4
3
3
4
4
4
2
1
1
3
-2
1
1
0
1
-3
-3
-1
-5
-7
-2
-4
0
-1
-5
-5
-7
-7
-2
-4
-8
-5
-8
-6
-6
-6
-7
-6
-5
-8
-6
-7
-5
-7
-7
-6
-6
-6
-8
-8
-8
-8
-8
-9
-6
-9
-8
-8
-12
-10
-14
-15
-12
-17
-14
-12
-12
-13
-8
-9
-10
-8
-5
-5
-8
-3
-7
-8
-5
-4
-5
-2
-5
5
11
13
7
0
-19
-40
-69
-95
-125
-143
-148
-131
-104
-74
-50
-26
-15
-5
2
8
12
8
13
13
12
15
11
14
13
14
11
11
12
11
11
9
9
7
8
9
9
4
5
4
6
6
5
3
3
4
-1
-5
-3
-4
-7
-6
-5
-4
-5
-9
-8
-9
-10
-10
-14
-15
-13
-15
-16
-19
-23
-23
-24
-25
-27
-27
-29
-28
-30
-27
-31
-28
-28
-23
-23
-21
-17
-12
-13
-7
0
-5
1
3
8
8
6
9
12
11
10
11
13
11
11
8
10
11
9
8
8
8
11
12
7
9
9
9
9
7
11
9
9
7
8
8
6
8
5
5
6
1
5
2
4
3
1
-3
4
5
2
4
-1
8
6
3
3
4
2
5
1
3
1
-2
2
-1
0
-2
-4
-2
-5
0
-2
0
-4
-4
-4
-4
-1
-2
-4
-3
-3
-7
-3
2
-3
-2
2
-3
-5
-6
-7
-6
-6
-7
-3
-5
-7
-5
-4
-4
-4
-6
-5
-6
-8
-6
-6
-7
-4
-5
-9
-5
-4
-4
-8
-6
-8
-9
-9
-7
-7
-8
-8
-11
-11
-10
-13
-12
-15
-16
-15
-20
-18
-15
-19
-14
-13
-11
-10
-11
-10
-10
-9
-8
-10
-9
-9
-10
-11
-10
-9
0
-1
7
11
11
0
-13
-35
-63
-91
-117
-137
-147
-130
-102
-72
-44
-27
-13
-3
0
3
4
8
9
8
9
11
10
10
11
12
12
8
9
11
7
7
7
9
6
8
3
4
3
4
2
3
3
-1
0
-4
-2
0
-5
-7
-5
-7
-7
-10
-9
-14
-12
-12
-11
-15
-13
-21
-17
-17
-21
-21
-23
-21
-25
-25
-26
-29
-27
-29
-29
-32
-29
-28
-28
-27
-23
-21
-19
-18
-13
-10
-4
-1
-1
5
5
9
10
8
12
10
11
11
9
12
13
11
14
13
9
11
9
7
8
7
10
8
8
8
7
8
9
8
7
7
8
8
6
7
8
5
4
5
9
5
5
5
5
6
6
10
6
5
4
3
1
6
6
1
0
2
2
1
3
4
3
3
4
3
4
3
5
3
3
1
1
0
-1
0
-1
-1
-3
-7
-3
-3
-2
-3
-5
-3
0
-4
-5
-5
-6
-3
-4
-6
-4
-7
-6
-6
-6
-8
-6
0
-4
-5
-5
-9
-8
-4
-7
-7
-8
-10
-9
-11
-9
-10
-12
-13
-9
-10
-11
-10
-12
-17
-15
-18
-18
-18
-18
-14
-10
-10
-9
-9
-9
-7
-8
-7
-9
-10
-10
-8
-9
-10
-9
-8
0
8
6
5
0
-16
-33
-59
-91
-117
-139
-146
-137
-109
-79
-53
-37
-15
-7
-1
2
3
5
8
9
13
7
9
11
8
7
5
3
4
3
8
7
5
5
2
5
2
3
4
-3
0
-5
1
-5
-4
-6
-3
-7
-8
-6
-9
-9
-9
-11
-11
-12
-14
-16
-14
-17
-18
-19
-19
-23
-25
-25
-23
-26
-28
-32
-29
-29
-30
-34
-32
-36
-33
-34
-33
-26
-24
-25
-19
-19
-12
-12
-7
-8
-4
2
1
6
7
7
11
12
11
12
9
13
9
11
12
10
12
10
11
10
12
12
11
8
14
9
10
6
8
6
5
6
5
6
6
3
3
7
2
4
3
5
3
2
2
6
4
4
4
4
3
4
1
2
1
0
2
2
1
3
1
2
-2
2
1
-2
-3
5
-4
4
1
-3
-2
-1
-2
-3
0
-2
-2
-5
-7
-2
-3
-3
-5
-3
-3
-4
-3
-4
-6
-4
-6
-4
-6
-5
-3
-7
-5
-4
-5
-6
-5
-3
-3
-4
-5
-2
-4
-5
-7
-8
-6
-9
-9
-12
-9
-11
-9
-13
-17
-15
-17
-14
-14
-13
-13
-7
-6
-8
-8
-4
-3
-4
-4
-5
-6
-7
-4
-2
-2
1
5
10
12
11
8
-8
-29
-52
-79
-107
-131
-146
-139
-119
-89
-61
-36
-17
-8
1
3
9
9
11
13
11
14
13
12
13
15
14
16
14
12
10
10
11
10
8
6
7
8
8
4
3
4
2
4
5
2
1
0
-3
2
0
-3
-3
-9
-9
-10
-8
-11
-11
-13
-13
-15
-16
-18
-21
-21
-19
-20
-28
-28
-28
-29
-28
-30
-29
-31
-30
-31
-32
-30
-26
-23
-25
-21
-17
-11
-9
-8
-5
1
4
5
9
7
9
13
11
14
13
11
15
13
11
12
13
7
9
11
10
11
9
7
6
10
9
7
8
6
10
8
7
6
9
8
8
4
6
4
6
8
7
8
5
4
4
6
5
8
5
7
5
4
2
3
-1
3
1
-1
2
-3
1
-1
3
1
-2
-5
-5
-5
-5
-7
0
-6
-2
-5
-5
-6
-4
-6
-6
-3
-3
-4
-6
-6
-5
-6
-2
-3
-4
-4
-6
-5
-7
-8
-5
-7
-5
-8
-8
-11
-6
-7
-7
-9
-8
-8
-7
-4
-6
-9
-6
-10
-9
-11
-11
-11
-11
-13
-15
-15
-17
-15
-17
-16
-17
-14
-12
-11
-9
-10
-8
-9
-11
-9
-10
-9
-8
-9
-9
-10
-6
-1
3
10
9
1
-9
-27
-51
-81
-105
-127
-146
-144
-122
-99
-67
-44
-22
-12
-1
2
5
9
12
12
14
11
14
17
14
14
13
11
9
9
9
7
7
8
4
7
5
5
5
4
6
2
3
0
2
-2
1
-3
-5
-4
-6
-7
-5
-13
-10
-8
-13
-10
-13
-14
-11
-16
-15
-16
-17
-16
-20
-21
-20
-24
-22
-23
-26
-31
-31
-32
-30
-32
-29
-30
-26
-25
-22
-17
-19
-14
-10
-7
-5
0
2
3
5
5
12
8
12
9
16
13
11
11
12
12
11
12
11
9
10
10
12
10
10
6
9
9
10
7
6
8
11
6
7
7
6
8
9
7
7
5
5
5
7
8
3
7
7
5
4
3
4
-1
3
2
3
7
0
2
0
3
2
3
2
3
-2
4
-1
1
1
3
2
3
0
-3
-3
0
-3
-1
0
2
-2
-1
-5
-4
0
-7
-7
-5
-4
-2
-4
-4
-5
-6
-4
-5
0
-4
-4
-6
-6
-7
-6
-7
-7
-4
-7
-7
-6
-5
-8
-7
-7
-6
-8
-8
-9
-9
-11
-13
-14
-14
-19
-17
-20
-14
-21
-15
-13
-11
-10
-8
-9
-10
-8
-9
-10
-9
-7
-10
-8
-8
-7
-4
-1
5
11
7
1
-12
-30
-54
-80
-114
-135
-145
-136
-113
-86
-57
-33
-17
-5
2
8
7
9
9
12
13
17
12
13
11
11
10
12
9
6
7
7
8
8
6
7
6
9
4
6
4
4
6
4
2
1
0
0
1
-4
-7
-7
-7
-7
-7
-8
-8
-13
-10
-12
-15
-17
-14
-17
-15
-23
-20
-25
-25
-28
-29
-27
-26
-31
-34
-30
-32
-29
-31
-26
-29
-21
-22
-19
-18
-13
-8
-9
-2
2
1
5
8
8
9
11
12
11
12
10
13
13
14
11
13
13
11
10
12
9
10
10
10
10
11
10
9
8
9
10
11
11
7
8
7
6
6
5
3
6
9
8
6
6
5
4
5
8
8
7
8
6
6
2
3
4
4
4
3
4
3
4
4
3
1
3
-1
1
1
0
-5
-3
-1
-3
-5
-1
-4
-4
-1
-3
-4
-3
-4
-4
-4
-6
-6
-7
-7
-5
-5
-8
-3
-5
-7
-6
-6
-6
-7
-9
-10
-8
-12
-10
-9
-11
-10
-13
-15
-16
-20
-16
-16
-15
-16
-13
-12
-9
-12
-12
-10
-7
-9
-10
-9
-7
-6
-8
-11
-8
-3
3
8
9
10
0
-17
-35
-59
-90
-115
-137
-144
-133
-107
-76
-51
-30
-14
-9
-1
8
8
5
7
6
5
7
8
7
7
7
4
7
8
8
7
8
3
6
4
6
8
2
0
2
1
-2
-3
-4
-1
-2
-1
-4
-4
-4
-7
-9
-7
-8
-8
-13
-10
-10
-14
-11
-16
-16
-21
-17
-19
-21
-22
-23
-27
-28
-30
-29
-30
-32
-30
-31
-32
-31
-33
-32
-28
-24
-20
-17
-15
-13
-13
-6
-4
1
4
1
6
6
7
9
7
10
7
9
8
12
9
12
10
12
11
10
9
8
9
12
11
8
9
9
12
9
8
9
3
9
5
7
5
7
8
3
6
6
5
5
3
3
4
2
2
2
5
5
3
2
2
0
1
2
1
2
1
-1
0
1
-4
1
0
-1
0
0
-1
-2
2
0
-5
-2
-3
-6
-4
0
-3
-1
-4
-4
-6
-6
-6
-8
-6
-4
-6
-8
-7
-8
-10
-8
-9
-8
-5
-7
-7
-7
-9
-9
-10
-11
-8
-12
-9
-13
-11
-15
-16
-16
-16
-14
-15
-12
-10
-9
-5
-5
-9
-6
-7
-9
-9
-5
-7
-5
-6
-5
-2
1
8
12
9
1
-12
-29
-55
-85
-109
-133
-144
-134
-116
-86
-56
-37
-18
-9
3
6
7
9
11
15
12
13
11
12
15
13
11
11
9
9
11
10
9
7
4
8
5
6
6
2
5
2
5
2
1
2
-3
1
-4
-6
-6
-6
-6
-8
-8
-9
-4
-11
-11
-12
-15
-17
-17
-19
-18
-21
-21
-24
-22
-26
-24
-29
-28
-32
-33
-35
-31
-31
-32
-28
-30
-23
-22
-18
-17
-14
-11
-8
-5
-4
1
2
5
3
7
6
9
10
12
8
8
10
8
9
9
6
11
9
7
9
8
5
7
7
8
6
7
6
7
7
10
1
3
4
5
6
3
8
2
6
3
3
7
6
7
4
6
6
7
8
6
3
5
5
6
5
4
4
3
2
4
3
2
3
3
4
3
3
-1
3
1
3
2
4
3
1
-1
-2
-3
-3
-5
0
-2
-3
-2
0
-1
-1
0
4
0
0
-5
-5
-5
-5
-6
-7
-10
-5
-5
-6
-6
-7
-4
-6
-7
-9
-8
-8
-7
-9
-8
-7
-6
-9
-12
-10
-15
-14
-14
-17
-14
-15
-13
-13
-8
-11
-9
-7
-8
-9
-8
-9
-11
-7
-10
-8
-11
-6
-2
4
11
12
7
-3
-18
-39
-64
-95
-120
-143
-147
-132
-104
-73
-48
-27
-12
-2
3
7
8
13
11
13
11
11
12
14
13
11
12
11
12
13
10
9
11
7
9
7
3
6
4
-1
1
2
2
-1
-1
0
-2
-2
-3
-5
-3
-5
-7
-6
-9
-9
-10
-11
-14
-15
-16
-13
-16
-21
-17
-20
-20
-20
-22
-20
-27
-27
-28
-29
-27
-33
-31
-31
-29
-28
-26
-23
-21
-16
-15
-9
-9
-9
-4
-2
2
3
5
8
8
7
9
10
9
9
10
11
9
13
10
10
10
8
10
12
9
7
12
10
12
9
11
10
10
10
9
7
13
7
8
14
7
12
9
9
7
7
7
7
7
4
5
6
5
4
6
4
2
5
-1
2
-1
-1
4
3
1
1
-1
4
0
-1
1
1
-1
1
2
0
0
-2
1
-3
-2
-3
-5
1
-3
-5
-5
-5
-4
-9
-5
-2
-7
-7
-3
-4
-3
-4
-6
-5
-5
-2
-3
-4
0
-5
-5
-10
-11
-7
-8
-5
-4
-8
-9
-3
-6
-7
-8
-10
-8
-12
-11
-13
-11
-17
-15
-17
-16
-17
-15
-15
-13
-13
-10
-10
-13
-9
-9
-9
-9
-9
-8
-7
-8
-8
-7
-6
-2
5
7
11
3
-7
-25
-48
-73
-105
-129
-143
-142
-123
-93
-65
-41
-23
-9
3
6
4
8
7
10
12
11
14
15
16
12
11
7
12
7
10
9
8
7
8
6
8
5
3
4
4
3
0
1
-5
0
-3
-4
-5
-6
-3
-8
-2
-4
-5
-5
-6
-6
-8
-9
-8
-12
-10
-14
-17
-15
-18
-19
-21
-23
-20
-23
-23
-24
-25
-24
-27
-24
-28
-27
-26
-22
-20
-18
-14
-14
-9
-4
-4
-1
5
7
7
8
10
12
11
7
13
10
16
13
16
12
12
12
13
11
11
13
12
11
7
9
9
10
6
8
5
7
5
6
3
7
5
7
5
7
8
6
5
5
3
4
2
3
2
2
-2
2
2
1
2
0
1
-2
-1
2
2
2
2
2
-2
-3
1
0
-1
-7
-3
-5
-7
-5
-6
-3
-4
-1
-2
-5
-3
1
1
-3
-3
-5
-3
-7
-5
-5
-4
-8
-4
-7
-4
-8
-6
-7
-9
-8
-8
-7
-9
-8
-11
-9
-11
-9
-12
-11
-12
-12
-10
-13
-11
-17
-15
-15
-15
-17
-14
-15
-12
-12
-11
-9
-9
-5
-11
-8
-9
-9
-8
-11
-9
-7
-10
-3
-3
5
7
7
2
-8
-23
-47
-73
-101
-127
-143
-141
-124
-93
-69
-44
-21
-13
-1
2
8
4
9
11
8
12
7
8
8
8
8
7
8
8
5
6
4
4
5
2
4
0
1
1
1
-1
0
2
0
-2
-3
-2
-3
-5
-5
-6
-5
-7
-7
-7
-9
-9
-7
-7
-11
-13
-16
-13
-18
-20
-23
-25
-22
-24
-29
-28
-27
-31
-29
-29
-28
-31
-28
-31
-28
-23
-25
-21
-18
-13
-14
-9
-6
2
2
2
5
3
7
7
8
9
10
9
9
9
11
11
13
9
11
11
11
9
10
6
8
8
10
9
7
8
6
5
6
8
8
9
8
6
4
6
8
3
2
3
5
2
4
5
4
2
1
2
3
5
1
1
1
-2
2
1
2
-1
3
1
3
2
2
-1
2
1
-1
0
-2
2
-4
-5
-4
-3
0
-4
-5
-4
-3
-4
-4
-5
-6
-5
-8
-3
-8
-4
-6
-4
-7
-4
-7
-8
-7
-9
-10
-8
-7
-8
-9
-10
-10
-11
-9
-12
-12
-16
-15
-17
-15
-15
-14
-12
-8
-7
-9
-7
-11
-8
-9
-9
-8
-10
-7
-8
-6
-4
-9
3
7
8
4
-6
-23
-40
-66
-97
-119
-141
-143
-126
-101
-70
-48
-24
-13
-5
3
5
12
7
16
12
13
12
15
13
14
14
12
14
12
9
8
9
7
9
7
7
4
7
4
4
2
6
-1
4
2
5
1
2
-6
-3
-5
-4
-6
-9
-9
-11
-11
-9
-14
-13
-17
-12
-18
-16
-20
-23
-24
-23
-24
-30
-28
-32
-32
-32
-33
-29
-33
-29
-29
-28
-29
-24
-23
-17
-13
-11
-7
-4
1
1
2
3
5
11
10
11
9
10
15
13
12
13
13
11
13
14
11
12
10
9
8
9
10
8
6
9
7
7
7
10
5
7
7
4
3
2
6
5
4
2
2
3
4
1
3
4
6
4
8
5
5
2
2
-1
4
1
1
0
1
1
-1
-2
-2
0
0
-5
0
-1
0
-1
-4
-5
-5
-4
-3
-4
-5
-5
-5
-4
-6
-5
-3
-4
-7
-4
-5
-3
-6
-8
-7
-7
-8
-8
-9
-7
-5
-9
-5
-6
-7
-7
-8
-10
-8
-10
-8
-8
-12
-9
-10
-14
-17
-16
-14
-12
-13
-10
-13
-7
-10
-6
-8
-6
-5
-7
-5
-7
-7
-7
-7
-4
-3
6
8
14
10
0
-12
-28
-53
-83
-112
-135
-143
-136
-113
-80
-56
-34
-18
-4
2
4
12
8
11
11
13
11
15
14
14
12
13
11
14
9
10
9
12
12
8
8
12
6
4
3
3
2
3
5
1
-2
0
-6
-6
0
-10
-8
-11
-11
-9
-12
-12
-9
-13
-11
-15
-14
-17
-16
-16
-21
-23
-20
-25
-21
-23
-24
-28
-31
-30
-27
-27
-30
-32
-26
-24
-23
-17
-16
-14
-13
-7
-5
-5
2
3
4
5
6
8
10
9
10
13
12
16
10
11
12
13
11
11
12
10
10
13
11
14
11
7
8
11
9
6
6
6
5
5
6
4
6
3
1
1
8
5
5
4
4
4
7
5
5
4
1
5
2
1
-1
-1
1
1
-3
2
3
2
0
0
2
-4
0
-4
-3
-5
-5
1
-5
1
-7
-3
-5
-4
-5
-5
-5
-3
-5
-3
-5
-5
-6
-3
-6
-6
-3
-7
-5
-8
-4
-8
-6
-6
-4
-7
-6
-7
-5
-6
-6
-10
-6
-6
-8
-9
-6
-9
-9
-9
-10
-9
-6
-11
-9
-10
-9
-10
-9
-11
-12
-10
-11
-14
-16
-16
-21
-18
-15
-13
-9
-9
-8
-10
-7
-9
-13
-7
-7
-8
-9
-7
-10
-10
-4
-1
4
9
11
13
2
-9
-28
-53
-84
-113
-138
-145
-140
-117
-86
-56
-34
-19
-9
-5
3
6
7
11
10
13
12
14
11
16
12
12
12
10
8
9
13
16
9
7
6
6
8
8
6
3
8
3
3
4
1
2
1
-3
-5
-5
-5
-7
-4
-8
-7
-11
-9
-12
-10
-13
-12
-17
-18
-21
-19
-19
-21
-23
-24
-24
-24
-27
-27
-31
-30
-29
-27
-28
-27
-25
-25
-23
-20
-17
-13
-9
-8
-4
-4
-5
2
8
7
4
6
7
5
8
9
9
11
9
8
8
8
7
10
7
6
8
5
7
5
5
4
8
7
6
6
8
7
7
5
3
6
6
4
6
6
5
5
3
3
3
6
8
10
3
5
5
6
4
3
1
1
2
1
1
2
2
3
2
3
2
-2
0
0
-3
2
-1
1
-2
0
-2
-4
-4
-2
-2
-8
-5
-6
-6
-7
-9
-9
-7
-7
-4
-12
-3
-5
-9
-9
-7
-6
-9
-6
-5
-7
-5
-7
-10
-10
-8
-7
-8
-7
-8
-10
-10
-7
-10
-7
-7
-5
-3
-9
-9
-7
-5
-7
-5
-9
-6
-6
-6
-8
-8
-8
-8
-11
-6
-10
-13
-9
-12
-14
-15
-13
-15
-16
-11
-9
-8
-7
-6
-7
-6
-7
-3
-9
-9
-7
-5
-8
-6
-2
-2
-1
6
9
14
8
-3
-16
-41
-67
-99
-124
-138
-145
-122
-96
-71
-42
-22
-9
0
1
3
10
6
8
9
12
12
12
16
9
11
12
12
8
7
6
8
9
7
5
5
9
5
4
6
4
1
-1
0
-1
-3
2
-4
-5
-2
-6
-7
-6
-7
-9
-6
-8
-9
-10
-12
-16
-15
-14
-16
-21
-21
-21
-20
-23
-25
-27
-26
-27
-29
-28
-30
-30
-28
-30
-30
-23
-20
-20
-17
-14
-12
-8
-5
0
2
2
3
7
8
10
12
9
16
12
12
14
11
11
12
14
12
11
11
11
8
7
6
10
11
10
11
8
8
7
3
7
6
6
8
6
8
4
4
6
3
6
8
5
6
-1
3
2
6
4
3
3
5
4
3
4
3
3
4
2
5
1
1
1
2
-1
5
2
2
1
0
3
-5
1
-2
2
-2
2
0
2
-5
1
-3
-4
-3
-4
-5
-6
-3
-5
-3
-6
-1
-5
-4
-3
-4
-6
-8
-7
-7
-8
-4
-5
-7
-6
-5
-5
-6
-8
-5
-10
-10
-7
-7
-7
-9
-6
-9
-8
-9
-8
-11
-8
-7
-9
-8
-12
-8
-7
-6
-8
-8
-10
-11
-11
-10
-9
-10
-11
-16
-12
-16
-15
-15
-13
-8
-9
-8
-9
-9
-8
-10
-9
-9
-9
-5
-6
-7
-7
-6
-3
-6
3
5
9
9
-1
-15
-35
-58
-88
-115
-137
-149
-137
-114
-80
-55
-34
-15
-5
1
5
7
12
10
10
13
10
9
9
11
11
11
10
12
9
6
6
5
5
8
5
4
3
4
4
3
-1
-2
1
2
-4
-3
-4
-5
-6
-5
-9
-4
-8
-7
-6
-9
-11
-13
-11
-13
-15
-15
-15
-17
-21
-19
-23
-22
-24
-29
-28
-33
-30
-30
-33
-32
-32
-31
-31
-28
-26
-20
-23
-16
-17
-13
-11
-8
-5
-3
1
1
4
8
5
6
10
11
11
12
9
13
10
9
10
11
7
10
7
11
8
11
10
9
9
6
11
8
9
11
4
8
7
7
7
7
5
7
8
7
8
5
6
5
6
3
8
8
3
5
6
6
6
3
1
3
4
3
3
3
1
3
1
2
0
-2
0
1
2
0
-4
-2
-2
-2
-5
0
-2
-2
-2
2
-4
-5
-4
-2
-5
-5
-1
-4
-5
-6
-4
-4
-2
-7
-6
-6
-9
-6
-8
-11
-8
-6
-7
-4
-7
-4
-7
-4
-6
-9
-9
-8
-8
-10
-10
-10
-8
-9
-12
-10
-9
-12
-14
-8
-10
-8
-8
-9
-9
-9
-8
-13
-11
-13
-13
-11
-12
-15
-16
-17
-19
-17
-15
-14
-14
-14
-12
-13
-8
-8
-10
-9
-10
-8
-9
-7
-7
-8
-7
-6
-3
4
9
16
8
-3
-16
-36
-62
-93
-116
-140
-149
-139
-111
-83
-58
-34
-19
-8
1
4
8
7
10
11
13
16
15
11
11
9
11
9
10
9
9
9
12
8
7
7
8
9
6
7
4
2
3
6
2
1
2
3
4
0
-4
-4
-3
-3
-5
-4
-6
-5
-9
-9
-12
-10
-10
-17
-17
-16
-18
-21
-22
-20
-23
-25
-25
-28
-25
-27
-28
-27
-25
-26
-27
-24
-20
-19
-16
-12
-12
-7
-6
-4
0
6
3
9
13
11
12
11
13
12
11
12
12
15
13
11
16
12
11
12
9
8
9
11
8
10
9
10
7
7
6
9
7
5
3
7
6
8
5
5
8
5
7
7
8
5
5
1
5
5
5
3
8
4
5
7
8
5
7
2
5
4
5
3
3
-1
0
-3
-1
1
1
2
3
4
-2
-6
0
-4
-4
1
-3
-2
-1
-1
-2
-2
0
1
-5
-4
-6
-3
0
-5
-4
-3
-6
-6
-2
-6
-5
-6
-6
-8
-8
-7
-9
-9
-6
-9
-11
-10
-10
-8
-8
-8
-9
-10
-8
-13
-11
-9
-6
-7
-8
-6
-7
-6
-10
-9
-11
-13
-11
-14
-13
-16
-14
-12
-13
-13
-10
-11
-15
-14
-8
-8
-10
-13
-13
-9
-10
-9
-8
-8
-13
-7
-3
2
4
8
1
-7
-26
-49
-78
-109
-130
-146
-143
-121
-94
-63
-38
-19
-11
-1
3
9
10
10
14
14
13
14
10
12
14
10
11
7
9
7
6
7
9
9
10
8
5
4
4
6
2
6
3
2
1
0
2
-1
-3
-5
-7
-5
-6
-12
-9
-9
-9
-10
-14
-16
-12
-13
-18
-19
-21
-25
-22
-26
-27
-28
-26
-31
-30
-34
-32
-35
-36
-32
-33
-32
-33
-30
-25
-22
-23
-16
-14
-13
-11
-7
-6
-3
-2
1
6
8
11
9
9
7
9
12
12
7
10
8
10
8
9
10
9
5
7
6
4
6
7
8
6
6
6
7
8
9
8
6
6
7
5
5
7
6
9
3
6
1
3
5
1
3
1
4
1
-2
2
3
-2
-1
2
0
0
2
-3
-2
0
-2
0
0
1
2
0
-4
0
-5
-4
-3
-2
-1
-4
-3
-4
-4
0
-4
-3
-6
-7
-6
-4
-3
-5
-6
-2
-6
-7
-4
-5
-5
-4
-6
-5
-9
-8
-9
-9
-9
-7
-8
-6
-11
-8
-12
-9
-14
-9
-11
-11
-10
-15
-12
-15
-15
-15
-12
-13
-11
-11
-8
-7
-8
-9
-7
-6
-8
-7
-7
-6
-6
-6
-4
1
7
9
9
-2
-15
-35
-61
-87
-117
-139
-143
-133
-104
-73
-48
-31
-14
-7
2
2
4
3
11
10
10
12
11
10
12
12
10
7
9
9
8
9
8
7
5
6
3
2
4
4
2
-1
0
0
-5
-4
-4
-5
-1
-7
-7
-9
-9
-6
-6
-9
-12
-12
-11
-12
-16
-17
-16
-18
-21
-20
-20
-25
-24
-28
-29
-30
-33
-31
-31
-33
-32
-33
-31
-31
-28
-24
-23
-21
-17
-11
-8
-6
-5
2
1
4
5
7
7
8
10
11
14
13
12
11
13
12
10
10
7
8
7
11
10
7
8
8
8
8
10
8
8
7
5
8
8
5
5
3
4
5
4
3
4
3
5
2
4
5
7
5
5
4
3
5
6
4
2
3
4
0
4
4
-4
0
-5
0
-2
-1
-3
-5
-3
-3
0
-1
-3
-3
-5
-3
-4
-7
-6
-5
-6
-9
-9
-6
-5
-5
-5
-5
-2
-7
-6
-2
-5
-5
-6
-5
-9
-6
-5
-8
-6
-9
-7
-6
-9
-11
-7
-8
-10
-10
-10
-9
-13
-10
-11
-13
-13
-18
-18
-14
-13
-14
-11
-10
-10
-7
-9
-11
-6
-8
-10
-9
-6
-7
-8
-9
-5
0
4
6
8
1
-10
-29
-50
-72
-106
-126
-144
-144
-125
-95
-67
-43
-24
-10
-3
3
6
11
9
10
11
13
16
13
15
14
13
13
14
13
11
11
12
11
9
10
10
9
4
4
6
6
3
2
3
1
-3
2
1
-3
-2
-2
-4
-5
-7
-2
-7
-6
-9
-11
-14
-13
-13
-17
-16
-16
-19
-17
-22
-21
-22
-24
-26
-27
-29
-29
-34
-30
-28
-28
-27
-31
-23
-20
-19
-15
-13
-8
-5
-3
-3
3
7
6
8
9
10
10
11
13
13
13
13
13
12
10
11
11
11
15
12
8
11
10
12
10
10
14
11
12
9
8
9
11
9
10
10
6
12
8
8
6
7
10
2
7
8
5
8
7
9
6
6
8
9
5
4
6
4
4
4
1
2
5
0
3
1
0
-1
3
1
-1
2
2
-3
-3
1
0
0
-3
-2
-4
-5
-3
-4
-3
-2
-4
-4
-7
-5
-3
-4
-4
-7
-4
-6
-4
-5
-5
-6
-5
-5
-9
-5
-7
-7
-5
-3
-7
-6
-6
-6
-6
-8
-7
-5
-11
-10
-14
-13
-14
-15
-17
-16
-14
-14
-13
-11
-10
-8
-5
-6
-6
-6
-9
-7
-7
-7
-7
-10
-7
-4
2
1
8
11
3
-3
-17
-42
-64
-97
-125
-142
-147
-130
-104
-71
-46
-31
-12
-7
1
5
8
8
12
10
11
11
13
14
13
13
11
16
12
10
13
9
10
9
7
7
5
5
5
8
7
3
1
2
2
2
3
-2
-1
1
0
-2
-2
-5
-5
-7
-5
-6
-9
-10
-8
-10
-13
-11
-14
-17
-18
-18
-20
-22
-25
-24
-26
-29
-29
-27
-32
-30
-29
-28
-26
-23
-21
-19
-14
-12
-9
-5
-5
1
6
5
6
7
7
9
10
7
10
8
10
12
10
11
9
9
9
10
8
11
10
7
11
9
9
6
8
7
8
8
6
8
9
6
8
5
9
5
8
3
4
2
7
5
1
3
3
2
3
3
0
3
2
0
3
4
3
2
2
2
-2
2
3
2
1
-2
-1
3
-1
0
-2
-1
1
-2
-5
-3
0
-7
-5
-1
0
-1
0
-5
-5
-5
-3
-4
-7
-3
-5
-4
-4
-7
-9
-3
-6
-9
-6
-7
-6
-5
-4
-7
-8
-7
-9
-8
-7
-6
-6
-7
-11
-11
-9
-9
-11
-11
-10
-13
-15
-17
-19
-18
-16
-19
-17
-12
-11
-13
-12
-10
-8
-7
-7
-10
-7
-11
-8
-11
-10
-8
-2
0
2
7
10
7
-4
-16
-39
-66
-95
-121
-137
-139
-126
-100
-69
-43
-27
-12
0
1
6
6
9
7
12
14
13
14
11
11
16
10
12
10
11
10
10
7
8
7
6
5
5
3
4
0
-1
2
4
0
-5
1
-4
-5
-8
-6
-5
-10
-10
-11
-11
-9
-13
-12
-13
-14
-19
-16
-19
-20
-23
-22
-22
-25
-26
-28
-30
-31
-31
-30
-37
-35
-37
-35
-34
-33
-30
-27
-22
-22
-18
-16
-9
-8
-6
0
-1
3
9
9
12
10
8
11
12
9
14
11
9
14
12
13
14
11
11
11
11
9
7
8
6
4
5
1
4
6
4
2
6
3
3
2
0
2
3
-1
-1
4
2
0
1
-3
5
4
3
1
1
1
-1
2
8
1
5
4
2
3
3
4
4
3
2
1
0
3
-2
-2
-3
-2
-5
-3
-5
-1
-6
-6
-2
-4
-3
-5
-5
-7
-5
-5
-5
0
-5
0
-5
-3
-4
-4
-5
-2
-5
-7
-6
-6
-4
-6
-5
-9
-10
-10
-13
-9
-10
-12
-13
-13
-14
-11
-10
-9
-13
-8
-11
-7
-7
-9
-6
-6
-8
-4
-7
-9
-4
-5
2
3
9
11
8
1
-17
-34
-60
-89
-114
-135
-143
-127
-102
-75
-44
-28
-12
-2
4
8
7
9
10
11
10
10
11
10
10
10
11
10
8
7
8
8
8
8
4
5
8
3
-1
-1
1
2
-1
-2
-7
-4
-3
-4
-5
-4
-5
-6
-7
-5
-9
-11
-8
-12
-12
-15
-16
-15
-18
-18
-20
-23
-22
-25
-23
-29
-28
-31
-32
-34
-34
-36
-33
-33
-36
-34
-33
-33
-29
-23
-21
-15
-15
-11
-7
-6
-5
1
3
5
5
6
4
9
8
10
14
8
8
7
8
9
11
9
7
8
6
7
6
7
6
3
5
7
8
7
8
6
7
4
4
4
4
3
6
5
3
2
-1
4
4
1
1
4
3
0
1
2
0
1
1
4
-2
-1
-1
2
0
0
2
-1
1
0
0
-6
-4
-2
2
-5
-1
-3
1
-4
2
-1
-3
0
-3
-2
-5
-5
-5
-4
0
-4
-3
-3
-4
-4
-7
-6
-5
-8
-7
-8
-4
-6
-4
-10
-10
-11
-15
-13
-10
-12
-10
-7
-4
-3
-4
-6
-3
-8
-4
-8
-5
-5
-3
-5
0
-1
-3
3
9
13
11
12
1
-17
-39
-64
-89
-119
-137
-145
-126
-101
-72
-46
-25
-11
-2
7
7
7
11
11
16
13
14
14
12
14
11
10
11
11
9
11
11
7
9
8
7
6
7
7
4
6
3
4
-1
0
0
1
-1
-1
-6
-3
-5
-10
-8
-7
-6
-10
-9
-10
-12
-11
-15
-16
-16
-16
-22
-19
-22
-25
-24
-26
-30
-32
-28
-34
-32
-28
-29
-30
-31
-27
-26
-25
-21
-18
-16
-14
-9
-6
-6
-5
3
5
2
8
7
8
10
11
10
14
13
11
10
7
10
12
8
9
12
9
5
6
9
8
5
6
7
7
8
9
5
6
3
4
4
5
7
5
4
8
6
6
5
4
3
6
5
4
3
3
5
4
0
3
1
3
2
3
3
1
-2
-3
0
2
0
-1
0
0
-3
-3
-4
0
-6
-6
-5
-6
-5
-4
-6
-9
2
-2
-4
-5
-5
-4
-4
-5
-10
-11
-8
-8
-10
-14
-16
-12
-12
-14
-11
-9
-9
-7
-6
-7
-8
-5
-4
-6
-3
-5
-5
-3
-2
-2
4
7
10
13
8
2
-17
-38
-65
-93
-119
-143
-149
-131
-106
-76
-50
-28
-14
-4
1
4
6
5
7
10
12
14
11
11
14
12
9
12
12
11
10
12
9
7
9
9
5
4
6
3
4
3
0
3
-3
-3
-4
0
-6
-7
-4
-6
-8
-7
-7
-10
-9
-13
-10
-14
-13
-12
-15
-20
-21
-22
-19
-24
-25
-27
-25
-29
-26
-30
-30
-30
-31
-31
-28
-28
-28
-25
-20
-19
-16
-12
-9
-2
-2
0
0
4
8
5
8
8
9
12
8
7
11
9
12
9
8
6
10
10
8
7
7
5
9
10
8
5
6
8
3
8
4
5
5
5
7
3
5
5
4
4
5
4
4
3
3
3
3
2
6
1
4
8
6
4
4
3
-1
2
-2
0
3
3
4
-1
-3
-1
2
0
-3
-2
0
1
-4
-6
-7
-4
-6
-7
-8
-9
-13
-10
-17
-17
-16
-15
-10
-11
-9
-7
-8
-8
-5
-6
-7
-9
-6
-6
-7
-9
-7
-6
-2
2
3
9
9
6
-8
-20
-41
-68
-99
-122
-141
-146
-124
-97
-72
-46
-25
-10
-3
3
6
9
7
12
15
16
13
13
12
9
8
7
11
11
12
12
8
7
8
6
6
6
6
4
4
4
5
0
-1
-3
0
-7
-3
-4
-4
-5
-7
-8
-10
-8
-11
-11
-12
-15
-12
-17
-17
-17
-16
-19
-21
-24
-23
-24
-27
-27
-33
-33
-30
-30
-33
-31
-29
-28
-29
-24
-22
-19
-18
-11
-10
-9
-3
0
4
3
8
8
9
7
12
13
14
11
15
15
12
13
13
13
12
10
10
9
10
8
10
7
8
8
3
11
8
7
7
6
9
11
11
9
6
8
5
5
6
6
8
7
8
9
5
5
6
4
2
4
4
2
2
4
5
1
1
2
-2
1
4
1
1
1
2
2
2
0
-5
4
1
-2
-4
-7
-8
-6
-9
-10
-11
-12
-8
-10
-5
-6
-5
0
0
-4
-3
-5
-5
-3
0
0
-1
1
0
2
6
11
14
13
6
-10
-31
-55
-82
-111
-131
-137
-126
-102
-72
-42
-25
-12
-5
5
9
11
11
12
12
15
13
16
15
13
11
9
12
13
9
11
12
8
6
5
6
3
6
4
8
4
4
4
3
2
2
2
1
-1
1
-5
-1
-4
-5
-6
-9
-9
-12
-17
-14
-13
-20
-17
-16
-21
-21
-22
-24
-24
-27
-29
-30
-33
-28
-27
-29
-31
-28
-30
-28
-25
-22
-17
-15
-10
-8
-7
-2
-2
3
4
5
6
6
10
9
9
10
13
11
10
9
8
8
8
11
7
7
6
10
7
5
4
8
6
5
8
8
10
6
5
6
5
3
4
5
5
3
5
7
5
6
-1
0
2
-1
1
1
-1
2
0
0
3
2
4
3
2
-1
2
-2
2
-2
1
1
-1
-2
-4
-3
0
-5
-6
0
-3
-4
-1
-5
-5
-9
-5
-6
-5
-11
-11
-10
-10
-15
-16
-16
-16
-15
-11
-13
-10
-10
-5
-11
-7
-6
-8
-5
-8
-6
-6
-6
-5
-4
-2
-3
-1
7
13
4
1
-14
-35
-60
-89
-117
-139
-141
-132
-101
-77
-51
-31
-16
-9
1
1
6
4
7
9
7
9
8
7
8
7
12
8
6
6
9
5
4
2
4
4
0
4
1
-2
-1
1
-3
-5
0
1
-3
-3
-7
-6
-7
-7
-9
-8
-8
-10
-8
-10
-11
-13
-14
-15
-16
-15
-17
-20
-22
-22
-24
-25
-28
-29
-28
-32
-31
-32
-29
-29
-30
-25
-24
-26
-22
-18
-14
-11
-9
-8
-4
-4
-1
2
6
7
8
8
7
10
10
11
8
8
13
10
9
6
10
10
8
5
5
8
9
7
6
6
3
4
6
5
7
9
7
7
8
3
4
5
8
6
7
8
5
5
5
3
7
2
3
4
3
3
0
-3
2
-1
1
1
-3
-2
-4
0
-2
0
-2
-2
-4
-4
-6
-3
-5
-5
-2
-5
-4
-7
-4
-3
-4
-3
-5
-3
-6
-4
-5
-4
-5
-5
-9
-5
-8
-7
-7
-12
-13
-16
-15
-13
-11
-9
-5
-6
-5
-5
-4
-4
-4
-6
-5
-7
-5
-7
-6
-8
-4
-1
3
6
12
6
-4
-21
-43
-68
-96
-121
-144
-148
-131
-106
-76
-48
-32
-16
-8
1
3
6
5
8
9
7
9
11
11
9
14
11
7
9
9
10
10
8
7
7
7
5
3
1
5
5
1
4
2
-1
-4
-2
-6
-7
-2
-5
-7
-7
-9
-11
-9
-8
-16
-13
-10
-13
-14
-13
-16
-16
-18
-16
-25
-25
-24
-24
-27
-26
-27
-27
-29
-31
-31
-28
-29
-26
-21
-20
-16
-15
-10
-9
-6
-3
0
-2
1
5
5
6
7
6
9
8
10
14
10
12
9
9
11
10
12
9
12
10
11
9
9
9
12
7
7
9
11
9
10
11
7
6
6
6
7
5
10
9
6
5
5
4
6
5
6
9
7
5
5
4
0
3
2
4
2
3
0
0
3
4
2
3
1
2
1
-3
-3
-4
-3
-4
-3
-3
0
0
-2
-4
-5
-2
-3
-5
-4
-6
-2
-3
-7
-7
-2
-3
-2
-7
-5
-4
-4
-6
-8
-6
-9
-7
-8
-11
-12
-13
-15
-15
-15
-17
-13
-13
-8
-10
-10
-9
-7
-6
-7
-5
-7
-8
-8
-6
-6
-3
-6
0
-1
6
10
10
5
-13
-28
-49
-77
-108
-128
-148
-140
-118
-90
-62
-37
-21
-8
0
6
8
10
12
12
15
12
14
16
11
12
12
12
14
11
14
12
12
9
11
11
9
7
6
6
4
4
2
-3
1
0
-3
1
0
-2
0
-6
-3
-7
-9
-9
-9
-9
-8
-11
-12
-17
-15
-18
-16
-19
-20
-18
-21
-23
-25
-24
-25
-24
-28
-28
-31
-31
-32
-31
-30
-27
-27
-24
-19
-19
-14
-13
-10
-7
-3
-2
2
3
4
6
8
7
8
8
9
9
7
8
8
7
7
5
10
6
10
6
8
5
7
6
9
5
8
7
4
8
4
2
5
9
4
3
4
2
4
3
6
7
3
2
5
3
4
4
3
3
1
1
2
4
3
4
2
1
2
3
4
3
-1
1
-1
-2
-3
2
-2
-1
-2
-2
-2
-5
-3
-4
-5
-5
-6
-2
-7
-8
-6
-8
-4
-6
-8
-9
-5
-4
-5
-5
-5
-2
-6
-9
-8
-8
-9
-8
-7
-7
-7
-3
-6
-5
-6
-4
-7
-9
-7
-11
-13
-15
-17
-18
-17
-15
-15
-14
-10
-8
-8
-11
-8
-11
-8
-6
-6
-7
-8
-8
-6
-6
-4
2
7
10
11
9
0
-17
-32
-61
-88
-117
-135
-141
-127
-101
-69
-47
-25
-13
1
3
9
8
9
10
12
10
11
9
11
8
10
10
9
8
12
6
10
5
9
6
4
3
4
4
0
1
-2
-2
-2
-2
-3
-4
-2
-5
-5
-5
-7
-9
-9
-11
-9
-11
-13
-12
-13
-18
-17
-21
-18
-18
-23
-21
-27
-25
-26
-29
-25
-29
-32
-28
-28
-30
-29
-33
-31
-31
-27
-21
-21
-17
-13
-15
-8
-8
-5
-2
2
3
3
5
6
8
8
9
7
10
7
12
8
9
7
10
8
8
7
10
9
8
9
7
6
8
8
5
8
8
8
4
3
8
4
6
6
6
5
5
8
5
5
5
4
6
4
2
3
4
-3
-2
2
3
1
-2
3
-3
-1
1
0
4
-2
-2
4
-1
-5
-1
-2
-2
2
-2
-4
-4
-6
-5
-2
-6
-4
-7
-4
-6
-7
-8
-8
-5
-10
-7
-8
-8
-6
-7
-8
-6
-6
-7
-6
-9
-6
-11
-10
-9
-13
-13
-13
-15
-17
-13
-19
-15
-13
-15
-12
-12
-6
-7
-7
-9
-4
-7
-9
-5
-9
-8
-7
-9
-10
-8
-3
8
5
9
8
-8
-19
-39
-70
-93
-121
-138
-141
-120
-96
-67
-43
-22
-14
-2
2
6
5
6
7
8
7
7
8
6
9
9
8
10
4
4
3
3
3
3
1
7
3
1
2
1
-2
-3
-3
-3
-3
-2
-6
-4
-9
-5
-4
-8
-6
-10
-10
-9
-9
-11
-12
-15
-13
-14
-16
-20
-16
-19
-16
-21
-24
-24
-29
-27
-26
-29
-28
-33
-31
-32
-30
-28
-28
-24
-22
-21
-17
-17
-12
-10
-4
-4
3
2
5
5
4
5
8
8
5
8
8
11
10
8
12
11
9
8
9
10
8
7
8
6
7
9
7
6
5
10
4
4
8
6
6
4
8
4
7
2
4
3
3
2
5
5
8
5
4
5
6
4
1
5
2
0
3
3
3
2
2
2
1
0
-2
-3
-1
-5
-3
-5
-1
-1
-3
-3
-2
-4
-3
-2
-1
-3
-5
-2
-1
-2
2
-5
0
-2
-5
-3
-3
3
1
-2
-4
0
-2
-3
-4
-5
-8
-7
-7
-11
-12
-11
-15
-11
-11
-8
-7
-9
-3
-9
-5
-5
-2
-5
-3
-5
-5
-7
-5
-5
-2
4
7
11
13
9
-2
-17
-40
-63
-92
-120
-135
-140
-125
-95
-66
-40
-25
-9
-1
4
9
9
8
14
13
13
11
12
14
14
13
7
13
11
13
9
9
10
9
9
8
8
8
5
4
3
3
5
3
0
0
1
1
2
-5
-3
-5
-5
-7
-8
-9
-11
-10
-13
-13
-11
-12
-15
-16
-17
-19
-18
-22
-19
-22
-22
-25
-25
-29
-27
-30
-25
-29
-28
-28
-25
-25
-21
-18
-15
-13
-9
-7
-5
-1
0
3
3
6
7
9
9
10
9
8
8
8
10
7
9
9
7
7
8
11
8
6
7
7
11
7
8
5
7
5
8
7
5
4
5
5
7
6
6
3
8
5
3
6
7
7
5
4
6
8
6
7
5
3
6
3
7
6
6
5
4
4
3
1
5
4
4
2
1
0
1
5
-1
-1
2
0
-1
0
-3
-2
-3
-2
-3
-5
-5
-4
-5
-7
-8
-7
-3
-7
-7
-5
-7
-4
-3
-6
-5
-5
-6
-7
-6
-9
-10
-7
-9
-9
-10
-11
-13
-12
-15
-8
-11
-9
-6
-10
-9
-9
-5
-7
-8
-8
-6
-8
-4
-8
-7
-6
0
5
6
11
10
3
-11
-29
-53
-79
-113
-132
-144
-133
-109
-81
-54
-32
-18
-5
2
8
8
9
10
10
12
15
15
17
15
19
12
15
12
13
12
9
12
9
9
6
6
5
7
5
6
3
2
2
4
-3
1
0
-4
-6
-6
-5
-7
-6
-7
-9
-8
-9
-8
-8
-10
-13
-14
-18
-16
-18
-20
-22
-21
-24
-26
-26
-27
-27
-31
-30
-29
-29
-31
-32
-28
-27
-27
-22
-19
-16
-16
-13
-10
-4
0
0
2
1
5
5
5
5
4
7
4
8
9
7
8
5
6
5
5
8
7
7
5
9
6
7
6
6
3
6
4
5
6
6
4
4
2
4
2
2
2
2
1
3
4
1
1
0
2
3
-1
0
-1
0
3
-3
0
5
0
1
2
0
-3
-4
2
2
2
-1
-1
1
0
0
-4
-3
-3
-5
-4
-5
-6
-3
-2
-5
-4
-5
-8
-5
-5
-7
-4
-4
-6
-7
-5
-5
-7
-9
-4
-7
-7
-7
-9
-7
-8
-9
-8
-9
-13
-13
-12
-15
-16
-17
-14
-10
-9
-7
-9
-9
-7
-7
-4
-9
-7
-6
-9
-8
-7
-9
-4
-4
-1
9
10
6
-4
-18
-42
-64
-100
-120
-139
-139
-120
-90
-61
-39
-22
-9
-1
3
6
8
11
13
7
13
10
12
12
12
7
8
8
10
9
7
9
8
9
6
7
4
3
7
5
5
1
-3
-4
-5
-9
-7
-7
-9
-9
-11
-9
-9
-13
-11
-11
-15
-14
-15
-16
-14
-17
-18
-20
-19
-21
-23
-23
-26
-24
-26
-29
-31
-29
-32
-35
-34
-34
-30
-33
-29
-26
-25
-21
-19
-17
-13
-13
-7
-5
-5
2
4
8
3
6
10
9
8
12
10
10
10
10
10
8
8
8
11
10
10
5
9
8
7
8
8
8
9
7
9
5
6
8
6
8
4
6
9
8
7
10
9
7
7
9
3
6
4
3
3
8
-1
3
0
5
3
4
1
0
4
0
2
-3
2
0
1
-1
5
1
1
-1
-3
-1
2
-5
-5
-4
-3
-4
-3
0
0
-1
-5
-4
-5
-3
-6
-4
-10
-7
-6
-7
-10
-6
-9
-10
-11
-10
-12
-17
-10
-9
-10
-7
-9
-8
-7
-4
-6
-8
-4
-2
-7
-5
-5
-7
-6
-1
4
7
11
9
4
-13
-28
-57
-87
-112
-133
-141
-132
-106
-79
-50
-29
-14
-5
3
4
11
12
12
11
11
12
9
12
12
9
10
8
7
7
5
6
4
7
6
3
5
6
4
2
2
0
0
1
-1
-3
-7
-3
-5
-6
-7
-8
-6
-8
-9
-11
-10
-8
-10
-12
-14
-13
-15
-21
-22
-25
-24
-24
-23
-25
-27
-29
-30
-28
-28
-27
-29
-29
-31
-29
-28
-29
-24
-18
-21
-17
-11
-10
-8
-7
-3
2
2
5
5
7
8
7
7
10
8
11
9
10
10
11
13
11
8
9
7
9
5
10
9
10
6
8
7
7
9
8
8
10
9
7
7
6
8
6
7
5
7
7
4
5
6
6
8
2
2
3
1
4
2
3
6
1
0
2
1
1
0
-3
1
2
2
1
-4
-4
1
-5
-5
-5
-5
-7
-6
-6
-9
-7
-9
-11
-5
-10
-7
-9
-10
-8
-9
-13
-13
-14
-13
-15
-17
-14
-21
-17
-17
-16
-14
-13
-12
-9
-10
-11
-7
-6
-9
-11
-7
-8
-9
-10
-8
-8
-9
0
6
11
12
4
-8
-29
-52
-80
-109
-133
-146
-141
-120
-89
-63
-41
-21
-12
-2
4
7
10
12
11
12
15
14
14
13
13
14
14
10
13
9
9
11
9
9
8
8
9
5
6
