# ASI test file format
# {"c261c5a084f8c6b6":{"device ID": "c261c5a084f8c6b6","comments": " 5 minutes  in supine decubitus position","keywords": "HRV, Rest","firmware version": "0.6.3","device": "FieldWiz + T-shirt version 2","sampling rate": 250,"resolution": [16-bit],"date":"2020-04-13","column": ["ECG", "A1"],"sensor": ["RAW, ECG"],"label": ["ECG"]}
}
# EndOfHeader


-30
363
988
1490
1711
1812
1855
1878
1886
1893
1894
1890
1895
1893
1891
1894
1894
1897
1892
1896
1894
1894
1893
1892
1891
1889
1892
1891
1892
1889
1889
1891
1880
1785
1656
1521
1390
1272
1159
1061
967
884
801
730
664
604
556
524
500
485
469
460
456
448
439
433
427
421
414
410
405
401
395
390
384
380
377
368
353
333
309
281
257
232
207
186
166
151
135
119
103
95
83
75
65
57
51
46
39
35
32
32
30
27
30
28
23
27
28
27
27
30
26
25
27
28
26
28
25
24
23
23
22
24
18
17
13
12
9
7
7
6
2
2
1
-2
0
-3
-6
-4
-8
-4
-6
-7
-5
-7
-7
-4
-7
-7
-7
-9
-4
-4
-6
-5
-3
-5
-6
-4
-6
-2
-5
-4
-6
-6
-7
-4
-5
-4
-8
-7
-8
-8
-8
-10
-7
-8
-9
-10
-9
-9
-10
-8
-9
-9
-9
-11
-10
-8
-9
-10
-13
-9
-11
-10
-13
-11
-9
-8
-8
-10
-9
-12
-7
-8
-9
-10
-9
-11
-9
-8
-11
-9
-10
-10
-13
-10
-11
-10
-9
-11
-9
-10
-13
-13
-12
-11
-12
-10
-10
-11
-11
-9
-12
-10
-10
-10
-9
-10
-12
-8
-13
-10
-13
-11
-11
-10
-11
-10
-10
-9
-12
-10
-10
-10
-10
-11
-11
-13
-12
-11
-10
-12
-9
-10
-11
-12
-10
-10
-13
-12
-12
-13
-10
-11
-10
-12
-10
-11
-13
-11
-13
-13
-12
-11
-10
-10
-11
-10
-11
-12
-11
-13
-13
-12
-12
-10
-11
-15
-11
-12
-12
-10
-10
-9
-9
-10
-12
-11
-11
-13
-13
-8
-11
-12
-11
-12
-13
-13
-11
-10
-12
-11
-12
-12
-10
-12
-12
-11
-10
-10
-13
-8
-12
-11
-15
-10
-10
-12
-11
-15
-12
-12
-13
-13
-11
-13
-10
-13
-14
-12
-12
-13
-12
-10
-11
-8
-12
-13
-13
-13
-13
-11
-13
-10
-14
-12
-12
-10
-13
-12
-13
-13
-12
-12
-14
-13
-11
-13
-11
-11
-12
-15
-14
-12
-10
-14
-15
-13
-10
-11
-10
-10
-13
-11
-11
-11
-10
-12
-10
-11
-11
-10
-10
-12
-10
-12
-12
-10
-12
-13
-13
-13
-11
-12
-12
-13
-11
-11
-12
-13
-13
-14
-13
-11
-11
-12
-11
-13
-11
-11
-13
-13
-11
-13
-15
-11
-13
-13
-11
-12
-13
-11
-10
-11
-11
-12
-11
-11
-13
-9
-11
-11
-13
-13
-12
-13
-12
-10
-11
-13
-13
-11
-13
-11
-13
-14
-11
-12
-12
-12
-14
-14
-14
-11
-14
-13
-12
-11
-13
-13
-11
-12
-13
-12
-12
-11
-14
-11
-12
-13
-13
-12
-11
-12
-11
-11
-10
-13
-12
-13
-14
-14
-15
-13
-11
-13
-12
-13
-13
-14
-12
-13
-13
-13
-11
-12
-15
-14
-12
-13
-12
-14
-10
-13
-12
-13
-12
-12
-14
-13
-8
-13
-12
-11
-12
-10
-10
-12
-10
-12
-11
-13
-12
-12
-13
-15
-13
-12
-13
-15
-14
-12
-14
-13
-12
-14
-14
-16
-12
-13
-14
-13
-14
-14
-14
-8
-11
-14
-13
-12
-11
-10
-13
-12
-12
-13
-12
-12
-11
-13
-13
-13
-11
-12
-13
-12
-13
-12
-10
-12
-13
-14
-15
-14
-16
-11
-13
-13
-15
-15
-13
-13
-13
-15
-15
-13
-15
-13
-14
-13
-16
-13
-13
-13
-13
-11
-9
-12
-17
-11
-11
-8
-13
-12
-14
-13
-10
-13
-10
-11
-12
-13
-13
-13
-12
-14
-13
-11
-11
-12
-14
-16
-12
-11
-12
-14
-12
-12
-13
-12
-14
-13
-13
-15
-10
-13
-13
-13
-13
-12
-11
-11
-13
-10
-10
-10
-12
-12
-11
-11
-13
-13
-13
-11
-12
-10
-15
-12
-12
-11
-12
-13
-13
-12
-12
-13
-12
-16
-15
-13
-12
-12
-14
-14
-12
-12
-12
-11
-12
-12
-15
-11
-13
-13
-12
-10
-13
-14
-10
-10
-13
-12
-10
-14
-9
-13
-13
-10
-12
-15
-10
-12
-15
-13
-13
-12
-13
-12
-13
-13
-12
-17
-13
-15
-13
-13
-12
-13
-12
-13
-13
-12
-13
-12
-12
-14
-12
-13
-12
-12
-13
-11
-12
-11
-10
-12
-10
-13
-11
-13
-10
-13
-13
-11
-11
-12
-13
-13
-12
-12
-13
-12
-11
-14
-14
-13
-15
-14
-13
-10
-13
-13
-13
-13
-13
-13
-12
-11
-15
-17
-13
-14
-12
-12
-14
-13
-17
-11
-12
-13
-13
-12
-12
-12
-11
-12
-12
-13
-14
-12
-11
-10
-13
-13
-15
-12
-13
-13
-14
-13
-14
-12
-15
-13
-14
-16
-12
-16
-13
-14
-12
-13
-13
-14
-12
-12
-12
-13
-13
-14
-12
-13
-12
-13
-14
-12
-10
-13
-12
-15
-13
-11
-11
-12
-12
-13
-14
-13
-13
-13
-12
-13
-12
-13
-13
-14
-15
-13
-11
-15
-14
-12
-12
-12
-12
-14
-13
-13
-12
-15
-13
-14
-11
-13
-14
-11
-13
-10
-13
-9
-11
-12
-13
-14
-15
-11
-11
-12
-12
-13
-10
-14
-13
-13
-14
-15
-14
-12
-14
-13
-16
-17
-14
-14
-15
-12
-16
-14
-11
-14
-13
-11
-12
-12
-13
-13
-11
-13
-13
-12
-12
-12
-15
-12
-8
-11
-12
-13
-14
-14
-13
-12
-14
-11
-12
-12
-14
-12
-14
-13
-13
-12
-14
-13
-13
-15
-12
-12
-13
-14
-13
-15
-14
-12
-13
-15
-13
-13
-10
-13
-11
-11
-12
-12
-11
-13
-11
-13
-11
-13
-13
-15
-12
-13
-13
-11
-13
-14
-13
-15
-13
-14
-14
-12
-13
-14
-14
-10
-13
-11
-13
-12
-14
-14
-13
-13
-15
-13
-12
-14
-11
-12
-13
-12
-13
-11
-12
-11
-15
-12
-12
-11
-11
-11
-13
-12
-12
-14
-13
-13
-11
-12
-11
-12
-11
-13
-12
-14
-15
-17
-15
-11
-12
-13
-15
-15
-12
-13
-13
-14
-13
-11
-11
-13
-13
-13
-13
-11
-13
-11
-13
-11
-12
-11
-11
-12
-13
-12
-13
-11
-12
-13
-14
-14
-12
-14
-15
-12
-15
-11
-13
-14
-12
-16
-12
-15
-12
-15
-16
-14
-15
-12
-13
-12
-12
-13
-12
-15
-11
-14
-12
-12
-12
-10
-13
-12
-12
-13
-13
-14
-10
-10
-13
-13
-11
-12
-10
-14
-12
-17
-15
-14
-12
-14
-14
-14
-12
-14
-14
-15
-12
-10
-13
-13
-13
-15
-13
-15
-13
-13
-13
-13
-13
-12
-15
-11
-13
-12
-11
-10
-10
-10
-12
-13
-11
-13
-13
-11
-13
-12
-15
-12
-12
-13
-11
-15
-14
-13
-14
-11
-13
-11
-13
-12
-12
-14
-14
-14
-15
-13
-13
-12
-12
-11
-13
-12
-13
-13
-12
-10
-12
-12
-12
-11
-15
-12
-12
-15
-10
-11
-13
-13
-10
-13
-14
-12
-17
-14
-12
-14
-13
-12
-14
-12
-17
-13
-15
-12
-14
-14
-15
-14
-13
-14
-12
-13
-10
-11
-10
-12
-13
-11
-11
-11
-13
-13
-10
-14
-11
-13
-12
-11
-12
-12
-12
-13
-12
-12
-13
-15
-14
-13
-14
-13
-13
-12
-12
-12
-14
-13
-13
-15
-15
-12
-15
-13
-14
-14
-10
-14
-13
-11
-13
-11
-13
-12
-12
-12
-13
-15
-15
-12
-12
-14
-8
-10
-12
-12
-10
-8
-12
-13
-12
-11
-12
-13
-15
-11
-14
-15
-14
-12
-11
-13
-15
-13
-17
-13
-14
-13
-12
-12
-12
-15
-12
-12
-12
-15
-11
-10
-10
-11
-13
-11
-12
-12
-12
-12
-14
-10
-13
-13
-9
-14
-13
-13
-13
-14
-12
-12
-10
-12
-15
-12
-14
-11
-12
-14
-10
-13
-14
-13
-14
-13
-12
-13
-12
-9
-13
-12
-13
-13
-13
-12
-12
-13
-11
-10
-13
-14
-11
-13
-10
-13
-13
-12
-13
-11
-16
-14
-13
-15
-12
-13
-15
-13
-14
-16
-14
-12
-15
-12
-13
-12
-14
-14
-14
-15
-14
-13
-12
-13
-10
-15
-12
-11
-11
-11
-13
-12
-12
-12
-10
-13
-12
-12
-14
-12
-15
-11
-11
-11
-12
-13
-11
-13
-12
-10
-13
-13
-12
-8
-14
-14
-13
-13
-12
-13
-12
-10
-14
-13
-12
-12
-13
-13
-14
-12
-13
-12
-12
-10
-11
-13
-13
-11
-13
-11
-13
-11
-18
-40
-58
-80
-101
-115
-118
-120
-122
-118
-120
-121
-121
-121
-119
-121
-120
-121
-124
-121
-121
-122
-118
-125
-118
-122
-120
-121
-123
-120
-118
-125
-121
-124
-119
-123
-123
-124
-121
-125
-123
-123
-125
-123
-117
-110
-110
-117
-118
-124
-122
-125
-125
-124
-125
-124
-123
-123
-124
-124
-125
-125
-125
-125
-125
-125
-124
-124
-125
-126
-126
-126
-125
-124
-125
-124
-124
-125
-125
-123
-127
-127
-125
-124
-124
-125
-128
-125
-128
-126
-126
-127
-126
-128
-127
-127
-126
-127
-127
-127
-127
-127
-128
-128
-128
-126
-131
-126
-126
-131
-124
-131
-129
-125
-124
-128
-130
-130
-127
-124
-129
-126
-125
-128
-131
-128
-128
-129
-128
-132
-127
-125
-132
-128
-129
-132
-126
-134
-127
-130
-131
-130
-124
-127
-135
-127
-126
-131
-129
-127
-133
-133
-133
-130
-134
-127
-133
-127
-131
-130
-135
-127
-133
-130
-131
-133
-133
-133
-133
-128
-131
-130
-133
-133
-131
-135
-132
-129
-133
-133
-132
-129
-135
-136
-130
-137
-131
-128
-131
-134
-128
-133
-135
-133
-135
-134
-134
-137
-131
-130
-137
-134
-136
-131
-133
-135
-132
-139
-137
-130
-133
-138
-137
-134
-136
-138
-134
-136
-137
-133
-134
-137
-132
-137
-139
-136
-137
-133
-137
-135
-132
-137
-136
-141
-137
-134
-139
-135
-140
-141
-137
-135
-136
-137
-137
-138
-139
-133
-137
-139
-140
-136
-136
-139
-136
-136
-136
-139
-137
-138
-136
-137
-137
-137
-137
-141
-138
-140
-137
-138
-140
-141
-138
-138
-139
-140
-139
-139
-140
-142
-138
-139
-138
-139
-138
-140
-139
-142
-140
-140
-140
-142
-140
-140
-142
-140
-139
-141
-127
-97
-65
-45
-24
-14
-11
-7
-2
-2
-1
4
3
2
4
4
3
1
4
3
4
-1
-1
6
0
-2
1
2
0
-7
-3
-3
-5
-7
-8
0
-6
-8
-8
-10
-14
-8
-7
-7
-12
-24
-24
-23
-19
-15
-15
-13
-9
-12
-7
-9
-11
-9
-6
-9
-10
-10
-13
-8
-11
-8
-11
-6
-9
-14
-10
-10
-13
-14
-6
-8
-9
-8
-11
-11
-13
-10
-6
-8
-11
-15
-15
-13
-12
-15
-33
-32
-25
-19
-14
-11
-11
-10
-10
-8
-13
-12
-8
-10
-11
-8
-10
-8
-10
-10
-9
-8
-7
-13
-7
-9
-6
-13
-10
-9
-12
-11
-11
-8
-9
-8
-12
-13
-13
-12
-13
-14
-9
-9
-23
-34
-32
-25
-22
-18
-16
-13
-11
-8
-12
-8
-11
-10
-13
-11
-11
-13
-10
-12
-8
-9
-12
-4
-11
-12
-14
-7
-10
-8
-10
-13
-9
-13
-13
-7
-11
-8
-8
-13
-10
-6
-9
-11
-11
-22
-37
-39
-29
-25
-17
-14
-13
-12
-10
-9
-11
-10
-9
-9
-9
-7
-8
-11
-10
-9
-11
-9
-7
-9
-14
-8
-12
-12
-9
-10
-9
-7
-12
-13
-7
-13
-12
-8
-9
-13
-11
-10
-8
-10
-22
-41
-40
-30
-25
-21
-16
-13
-12
-8
-8
-11
-8
-8
-8
-9
-8
-8
-10
-9
-11
-8
-6
-9
-7
-9
-10
-6
-11
-11
-10
-12
-9
-11
-12
-7
-10
-10
-8
-10
-9
-11
-8
-7
-12
-22
-45
-46
-39
-26
-22
-16
-14
-10
-10
-9
-8
-7
-9
-8
-9
-6
-11
-11
-7
-10
-9
-9
-11
-9
-10
-12
-11
-8
-10
-11
-10
-11
-10
-9
-10
-9
-8
-10
-8
-8
-9
-7
-10
-8
-16
-40
-48
-45
-34
-23
-16
-12
-14
-11
-7
-4
-8
-10
-7
-9
-10
-9
-7
-11
-9
-7
-9
-9
-7
-7
-7
-13
-7
-12
-14
-12
-11
-11
-8
-8
-5
-6
-8
-5
-4
-9
-7
-10
-13
-10
-24
-53
-55
-47
-33
-24
-19
-13
-9
-9
-10
-10
-10
-9
-7
-8
-9
-9
-8
-8
-9
-8
-5
-7
-13
-7
-7
-8
-6
-4
-10
-12
-11
-9
-7
-10
-11
-5
-9
-9
-8
-11
-10
-9
-13
-13
-36
-58
-54
-42
-32
-21
-16
-12
-11
-6
-7
-7
-6
-10
-7
-6
-9
-7
-7
-4
-7
-7
-5
-7
-6
-9
-4
-9
-6
-10
-4
-6
-12
-7
-9
-10
-9
-12
-7
-12
-10
-11
-12
-9
-8
-16
-49
-65
-58
-42
-30
-23
-14
-11
-12
-8
-7
-7
-7
-9
-7
-9
-6
-9
-9
-7
-9
-8
-9
-12
-8
-8
-9
-9
-11
-9
-6
-6
-9
-12
-9
-10
-12
-12
-11
-9
-5
-9
-11
-13
-11
-19
-54
-70
-64
-46
-34
-25
-18
-12
-10
-8
-8
-7
-6
-6
-6
-8
-7
-3
-5
-5
-9
-5
-4
-6
-8
-11
-9
-6
-10
-10
-5
-7
-10
-9
-9
-7
-8
-9
-9
-12
-8
-7
-6
-8
-8
-21
-52
-81
-75
-58
-45
-31
-18
-14
-10
-7
-5
-9
-6
-5
-6
-6
-7
-6
-4
-4
-3
-5
-6
-3
-3
-8
-9
-3
-8
-6
-6
-9
-9
-8
-8
-8
-6
-7
-9
-13
-6
-9
-8
-9
-11
-14
-34
-72
-92
-77
-57
-36
-26
-17
-14
-10
-10
-10
-6
-5
-4
-5
-5
-1
-3
-1
-3
-5
-5
-4
-6
-5
-2
-5
-8
-9
-9
-8
-11
-8
-9
-9
-9
-10
-7
-6
-9
-10
-8
-11
-11
-8
-15
-43
-83
-91
-70
-53
-33
-23
-16
-13
-9
-7
-6
-7
-4
-4
-7
-7
-3
-4
-5
-5
-1
-4
-3
-4
-11
-2
-5
-5
-4
-7
-5
-7
-5
-11
-9
-9
-9
-5
-9
-7
-9
-11
-5
-9
-8
-22
-53
-96
-105
-84
-60
-41
-24
-16
-13
-11
-6
-6
-6
-6
-2
-4
-2
0
-4
-3
-6
-4
-5
-4
-7
-1
-4
-2
-4
0
0
-4
-5
-7
-8
-12
-3
-4
-7
-6
-3
-6
-9
-10
-8
-10
-15
-39
-77
-113
-106
-81
-55
-38
-25
-17
-8
-5
-9
-2
-6
-5
-3
0
-3
-5
-7
-4
0
-2
-3
-4
-4
-2
1
-3
0
-3
-4
-7
-7
-8
-9
-9
-9
-9
-4
-4
-7
-4
-3
-5
-7
-7
-25
-56
-101
-126
-112
-82
-55
-34
-22
-14
-8
-5
-7
-2
-1
-2
-2
-1
0
-1
-1
-5
-5
-3
-2
0
-1
-4
-4
-5
-3
-7
1
-7
-9
-5
-3
-3
-4
-7
-1
-6
-6
-6
-9
-9
-9
-9
-22
-47
-82
-116
-114
-87
-60
-41
-29
-19
-10
0
-2
-3
4
1
2
0
-4
-3
-1
1
-2
-2
0
-5
-3
-1
-2
-3
-5
-5
-7
-5
-3
-6
-5
-7
-9
-4
-6
-6
-11
-6
-6
-6
-8
-7
-16
-44
-79
-118
-140
-118
-84
-57
-35
-19
-13
-9
-3
-4
-5
-3
-3
-1
0
2
-1
0
1
1
0
2
1
-1
-3
-4
-3
-1
-3
-5
-5
-8
-5
-5
-6
-4
-6
-3
-4
-6
-2
-4
-7
-7
-11
-25
-52
-94
-131
-164
-144
-106
-68
-44
-24
-16
-7
-5
-2
1
-3
0
3
4
-1
1
2
-2
2
-1
0
1
0
1
-1
0
0
-4
-3
-4
-6
-4
-7
-4
-7
-6
-7
0
-5
-7
-10
-11
-9
-7
-20
-44
-78
-114
-156
-158
-122
-85
-54
-32
-18
-13
-4
-5
1
0
4
1
2
4
1
2
2
1
3
1
3
4
1
-2
3
3
2
1
-3
1
0
-3
-2
-5
-4
-4
-5
-6
-8
-8
-6
-9
-10
-12
-32
-59
-96
-134
-173
-171
-135
-90
-57
-34
-19
-12
-4
-3
0
6
3
2
3
4
3
5
3
5
2
5
2
1
1
2
-2
-1
0
-5
-4
-2
-3
-3
-5
-4
-6
-7
-9
-7
-8
-8
-9
-9
-5
-10
-25
-50
-85
-120
-155
-185
-171
-125
-83
-53
-30
-17
-9
-5
-1
5
0
4
7
7
7
8
7
8
5
4
4
2
5
4
6
5
1
3
-1
-2
-4
-2
-3
-3
-7
-4
-6
-4
-6
-6
-8
-4
-7
-7
-12
-29
-56
-88
-121
-156
-186
-186
-145
-96
-61
-37
-19
-8
-1
2
6
9
8
8
9
8
5
6
7
7
6
4
3
4
8
6
4
2
4
3
1
-3
-1
-6
-3
-2
-2
-4
0
-4
-4
-6
-2
-5
-7
-10
-28
-46
-72
-105
-136
-171
-199
-195
-151
-103
-64
-37
-20
-9
-1
0
6
9
8
7
7
6
10
6
10
7
8
8
6
8
8
5
6
2
6
-2
3
3
-4
-1
-5
0
-6
-2
-5
-4
-7
-8
-3
-5
-7
-11
-21
-40
-62
-95
-122
-153
-185
-202
-206
-169
-117
-72
-44
-20
-10
2
3
6
8
11
12
10
11
9
10
8
9
8
9
9
6
9
5
8
4
6
6
2
6
-1
2
0
-3
-2
-5
-5
-1
-6
-9
-5
-5
-5
-6
-16
-33
-52
-81
-106
-140
-168
-194
-213
-214
-188
-133
-84
-49
-26
-8
1
4
11
9
16
11
11
16
13
12
12
13
13
11
11
9
10
6
7
7
8
8
4
3
5
3
-1
3
1
-3
-5
-4
0
2
4
-4
0
-4
-13
-27
-47
-68
-90
-119
-142
-166
-192
-210
-219
-220
-183
-129
-76
-42
-17
-6
4
10
13
14
16
16
17
16
17
15
15
14
16
12
12
13
13
12
11
8
14
10
10
5
4
1
1
-1
-3
3
-2
-3
-3
-8
-3
-4
-4
-9
-18
-33
-51
-75
-95
-120
-146
-171
-197
-212
-221
-224
-212
-158
-103
-60
-29
-9
-1
8
13
15
16
18
18
17
20
19
17
17
14
16
17
16
16
15
13
16
10
12
10
3
7
5
0
8
4
1
-1
-5
-2
-3
0
-1
-4
-3
-9
-15
-25
-40
-60
-81
-101
-120
-144
-165
-187
-209
-221
-228
-227
-227
-199
-138
-84
-45
-21
-1
7
18
20
19
21
22
23
24
22
23
22
20
22
19
18
20
18
17
15
16
9
13
12
9
7
10
8
6
7
6
2
3
4
2
2
-2
0
-7
-10
-18
-33
-51
-68
-91
-112
-128
-151
-172
-192
-211
-224
-231
-233
-230
-228
-176
-116
-67
-30
-7
7
15
20
25
23
26
27
25
26
28
28
25
26
24
24
24
24
25
21
18
18
15
13
14
10
12
9
6
6
5
5
3
0
-1
-1
2
2
-1
-4
-8
-19
-30
-50
-66
-86
-106
-122
-143
-160
-181
-198
-216
-227
-231
-237
-236
-238
-220
-162
-101
-54
-20
-1
14
20
25
30
32
32
31
32
29
28
28
31
28
28
27
25
23
23
22
24
22
21
13
13
15
13
7
11
6
6
7
4
6
2
3
1
2
1
-6
-14
-28
-44
-61
-77
-101
-118
-138
-152
-169
-189
-203
-219
-231
-232
-238
-238
-243
-242
-243
-211
-148
-86
-45
-8
9
20
30
33
33
38
35
35
37
36
38
34
35
31
34
35
32
27
30
27
24
21
22
23
19
21
14
17
12
12
6
6
1
4
4
1
4
1
-1
-7
-19
-35
-48
-68
-80
-103
-117
-135
-143
-161
-174
-190
-205
-216
-227
-237
-239
-243
-245
-243
-243
-245
-219
-148
-84
-40
-6
19
24
34
38
39
43
40
41
40
40
39
40
39
37
38
36
37
36
35
32
32
28
23
22
22
22
15
17
13
11
10
9
10
3
4
-1
3
3
2
-6
-10
-18
-29
-43
-55
-68
-83
-97
-110
-120
-137
-153
-165
-177
-187
-201
-211
-227
-230
-241
-243
-247
-248
-249
-248
-245
-247
-246
-211
-139
-77
-24
7
25
37
44
49
50
52
50
52
52
54
52
52
47
49
49
48
47
42
41
37
38
38
31
27
25
23
19
16
16
17
12
11
7
7
7
8
5
5
3
-2
-15
-28
-38
-52
-62
-77
-91
-103
-114
-124
-140
-149
-162
-167
-176
-184
-199
-209
-217
-225
-235
-245
-248
-253
-251
-249
-255
-249
-252
-252
-254
-251
-215
-138
-69
-22
16
35
47
57
59
59
65
64
63
66
63
60
58
57
58
58
60
55
55
53
48
46
42
37
34
32
30
25
22
20
17
16
12
11
11
8
7
5
5
3
2
-6
-15
-25
-34
-43
-57
-69
-78
-88
-117
-129
-139
-141
-149
-154
-160
-166
-171
-180
-191
-197
-202
-207
-214
-221
-229
-234
-241
-244
-250
-253
-256
-256
-256
-254
-256
-258
-256
-257
-256
-256
-260
-257
-240
-164
-86
-21
18
47
64
75
79
83
83
83
84
83
79
80
80
77
78
76
75
77
74
75
69
65
59
53
50
46
40
37
35
30
29
24
21
22
17
16
16
11
10
7
8
-2
-12
-19
-29
-39
-46
-56
-66
-74
-85
-89
-101
-111
-117
-125
-132
-139
-149
-148
-159
-167
-174
-182
-187
-193
-198
-205
-210
-219
-224
-229
-239
-243
-247
-256
-259
-258
-262
-263
-260
-261
-262
-260
-263
-265
-262
-260
-261
-263
-263
-264
-261
-263
-262
-261
-262
-265
-261
-263
-263
-265
-263
-263
-261
-262
-260
-256
-209
-118
-30
35
76
104
121
130
135
135
136
136
137
137
131
132
130
129
128
127
125
120
122
118
112
104
95
90
81
67
69
64
59
54
47
40
37
37
33
28
28
26
24
17
20
13
7
3
-7
-17
-21
-32
-39
-43
-52
-57
-60
-69
-73
-83
-88
-95
-101
-108
-113
-119
-119
-124
-128
-134
-136
-138
-144
-146
-150
-154
-156
-160
-165
-166
-169
-173
-172
-175
-181
-183
-186
-187
-188
-194
-190
-195
-191
-191
-197
-197
-196
-197
-196
-196
-200
-201
-201
-194
-185
-181
-179
-181
-184
-188
-195
-195
-197
-198
-200
-200
-200
-198
-200
-199
-202
-199
-200
-198
-198
-200
-199
-196
-193
-198
-198
-192
-192
-190
-188
-190
-190
-188
-188
-186
-185
-183
-183
-181
-182
-181
-179
-179
-177
-178
-177
-176
-175
-169
-170
-169
-168
-165
-162
-164
-159
-155
-150
-142
-140
-135
-131
-126
-123
-117
-112
-107
-102
-93
-88
-85
-78
-74
-70
-64
-63
-60
-53
-45
-45
-41
-33
-31
-26
-22
-17
-10
-6
-5
3
8
16
22
23
21
9
-9
-29
-44
-49
-45
-35
-12
15
44
61
80
93
101
101
105
103
98
97
98
96
99
98
99
102
99
103
105
107
107
111
112
110
114
112
116
117
120
117
116
120
119
120
119
117
117
116
121
121
120
122
124
119
118
121
122
121
120
117
119
116
116
113
112
110
106
107
107
107
104
106
107
106
105
105
107
109
111
113
116
117
122
125
129
133
135
140
144
145
150
150
148
152
151
151
149
151
151
152
151
147
151
151
149
145
144
144
146
144
145
141
139
138
136
132
130
128
126
125
127
126
126
125
125
128
124
126
126
125
124
122
118
115
107
108
101
99
100
97
95
93
94
95
96
96
96
96
96
98
100
99
102
104
104
99
100
99
99
100
99
101
100
99
100
101
102
102
100
99
97
97
97
98
100
98
93
93
91
91
93
89
90
91
92
89
87
86
86
84
79
79
74
73
75
73
69
67
66
66
68
69
68
69
64
68
68
68
64
67
65
59
57
61
59
57
57
54
54
56
52
50
53
52
47
45
47
47
46
46
45
42
41
39
37
37
37
39
38
39
37
38
38
36
38
36
37
34
35
33
25
16
14
8
5
0
-2
-3
-5
-1
0
-4
2
0
3
2
2
4
8
6
4
3
4
6
5
3
1
3
2
-1
0
2
4
8
9
9
-1
-15
-39
-64
-87
-101
-100
-93
-74
-46
-20
0
16
29
33
32
27
25
21
16
11
12
11
13
14
13
16
18
23
25
21
25
28
28
28
26
27
31
32
27
25
28
24
24
21
21
21
19
19
17
17
17
17
17
13
13
11
9
7
5
1
-4
-6
-9
-10
-15
-19
-18
-21
-21
-25
-27
-27
-29
-29
-29
-28
-29
-22
-22
-18
-13
-11
-5
-7
-7
-6
0
4
6
8
3
7
9
11
9
7
6
5
5
6
5
3
2
2
0
-1
2
-3
-1
-3
-4
-4
-6
-8
-8
-10
-10
-12
-9
-10
-8
-8
-7
-11
-9
-9
-9
-9
-12
-13
-14
-13
-10
-15
-15
-18
-16
-18
-18
-18
-20
-21
-21
-25
-22
-21
-21
-20
-18
-22
-20
-21
-20
-20
-23
-23
-21
-18
-21
-21
-20
-21
-21
-21
-18
-20
-22
-20
-23
-22
-23
-22
-23
-21
-22
-23
-22
-18
-20
-22
-23
-25
-23
-20
-24
-24
-23
-22
-22
-25
-25
-25
-27
-24
-24
-24
-20
-23
-22
-22
-22
-22
-24
-26
-24
-23
-22
-24
-26
-23
-23
-25
-26
-25
-27
-25
-24
-23
-25
-25
-25
-24
-27
-27
-29
-29
-28
-27
-28
-29
-27
-23
-24
-25
-26
-28
-29
-29
-25
-28
-29
-28
-27
-25
-26
-29
-27
-27
-27
-30
-33
-28
-30
-32
-34
-33
-36
-33
-34
-33
-32
-33
-26
-29
-26
-23
-22
-25
-24
-24
-27
-28
-26
-23
-27
-25
-23
-25
-27
-27
-24
-27
-25
-22
-22
-17
-16
-19
-28
-48
-73
-97
-109
-121
-120
-105
-85
-61
-33
-14
-3
9
12
10
10
0
-4
-6
-8
-8
-9
-11
-10
-12
-12
-15
-13
-15
-14
-17
-17
-14
-15
-18
-17
-18
-19
-19
-18
-21
-21
-22
-20
-22
-23
-25
-21
-18
-19
-20
-26
-26
-29
-28
-26
-27
-30
-30
-37
-38
-41
-39
-40
-42
-42
-46
-49
-47
-50
-52
-54
-51
-52
-48
-50
-50
-46
-40
-42
-36
-36
-32
-29
-27
-25
-21
-15
-10
-10
-9
-6
-2
-1
5
1
2
4
5
5
5
1
3
2
2
2
-1
-2
-5
-3
-3
-4
-3
-4
-2
-5
-7
-9
-6
-11
-10
-13
-10
-7
-7
-10
-8
-8
-10
-12
-11
-10
-11
-12
-12
-8
-13
-12
-10
-10
-14
-11
-12
-12
-14
-17
-21
-23
-20
-24
-30
-32
-36
-38
-37
-40
-42
-45
-43
-40
-41
-40
-41
-39
-35
-36
-37
-35
-34
-34
-34
-35
-33
-36
-37
-36
-33
-35
-31
-34
-30
-36
-32
-31
-32
-29
-25
-27
-24
-22
-22
-20
-19
-14
-20
-20
-17
-17
-20
-17
-19
-17
-15
-16
-15
-14
-14
-18
-18
-17
-17
-17
-16
-13
-13
-16
-14
-18
-16
-12
-16
-15
-16
-13
-15
-16
-12
-14
-13
-12
-11
-11
-10
-8
-9
-7
-9
-10
-9
-9
-10
-9
-6
-6
-8
-4
-7
-5
-4
-4
-5
-2
1
1
1
0
-1
-6
-3
-5
-9
-11
-10
-12
-13
-12
-14
-10
-10
-8
-6
-8
-7
-9
-5
-4
-7
-4
-3
-2
-5
-2
-4
-3
-5
-4
-6
-5
-3
2
5
9
2
-11
-30
-57
-80
-93
-97
-87
-70
-48
-21
2
18
32
35
35
32
29
25
18
13
15
15
14
15
16
17
15
15
16
17
19
24
21
22
24
23
27
23
23
21
18
18
20
20
17
16
16
15
11
12
12
9
12
7
8
8
6
4
3
1
-4
-6
-5
-8
-9
-12
-17
-17
-19
-23
-21
-23
-24
-23
-26
-19
-19
-16
-13
-15
-8
-9
-4
-4
3
6
10
12
15
20
21
25
21
21
20
26
25
25
25
25
22
23
25
24
20
22
20
21
20
19
16
17
17
15
15
15
15
11
9
8
10
8
7
5
9
9
9
7
6
5
5
8
7
6
6
6
7
8
6
4
5
8
5
3
4
4
3
1
1
3
2
1
3
2
3
4
1
1
0
-2
2
-2
0
-1
-2
2
2
1
-4
-5
-5
-4
-4
-4
-6
-7
-8
-10
-9
-13
-13
-15
-14
-13
-11
-13
-15
-11
-14
-16
-17
-14
-14
-17
-19
-14
-13
-13
-13
-10
-10
-8
-10
-12
-11
-13
-12
-12
-11
-12
-12
-12
-11
-10
-13
-14
-14
-12
-15
-14
-11
-10
-11
-10
-10
-11
-10
-11
-13
-8
-12
-13
-15
-10
-12
-11
-10
-10
-13
-13
-13
-13
-12
-10
-10
-11
-8
-12
-12
-7
-14
-13
-12
-13
-17
-15
-14
-18
-19
-24
-21
-21
-21
-23
-24
-21
-16
-21
-19
-16
-11
-12
-12
-15
-12
-11
-12
-13
-12
-8
-9
-9
-11
-13
-10
-10
-9
-16
-15
-13
-13
-7
-4
1
7
5
-5
-21
-40
-67
-84
-98
-104
-101
-80
-57
-34
-12
5
19
26
25
24
20
13
13
10
6
2
4
-3
-3
-3
-7
-6
-8
-4
-7
-6
-9
-6
-4
-7
-5
0
-3
-4
-4
-4
-2
-9
-4
-2
-7
-6
-8
-2
-6
-8
-9
-10
-9
-11
-13
-14
-17
-15
-18
-22
-21
-22
-24
-24
-27
-28
-32
-32
-32
-36
-32
-33
-33
-34
-32
-34
-28
-27
-25
-18
-19
-14
-11
-7
-5
0
4
8
8
9
10
12
12
11
14
13
12
12
10
8
7
10
11
12
13
12
13
8
9
9
9
7
7
7
9
8
6
8
8
7
7
7
10
8
8
2
6
3
4
2
4
4
2
5
2
2
5
3
6
5
8
4
1
3
2
-3
-2
-2
-1
-2
-5
0
-3
0
-3
-2
2
2
-5
-4
0
-2
-1
-3
-7
-4
-6
-4
-7
-9
-6
-7
-4
-4
-4
-6
-3
-5
-5
-7
-8
-13
-9
-10
-11
-8
-6
-5
-7
-1
-3
0
-4
-1
-4
-5
-2
-3
-4
-6
-8
-9
-13
-12
-12
-12
-11
-11
-10
-13
-9
-10
-8
-15
-13
-12
-10
-9
-8
-6
-10
-9
-9
-9
-6
-10
-12
-7
-9
-8
-9
-9
-6
-8
-9
-8
-6
-9
-7
-4
-7
-4
-3
-4
-6
-4
0
-3
-2
-4
-4
-6
-7
-9
-6
-10
-9
-10
-10
-9
-10
-9
-10
-11
-10
-9
-8
-8
-7
-8
-9
-10
-9
-12
-11
-13
-8
-10
-9
-9
-7
-7
-9
-11
-9
-12
-17
-15
-15
-17
-10
-14
-13
-13
-12
-12
-14
-12
-10
-8
-5
0
1
-4
-15
-33
-57
-80
-99
-105
-101
-85
-67
-40
-16
2
16
24
27
25
21
14
8
3
2
-2
-3
-2
-5
-4
-4
-8
-7
-6
-9
-7
-9
-5
-5
-6
-7
-10
-10
-13
-14
-17
-11
-12
-11
-10
-11
-14
-15
-15
-17
-14
-15
-15
-17
-18
-20
-22
-25
-23
-25
-29
-33
-33
-36
-39
-38
-43
-42
-42
-46
-48
-51
-50
-48
-48
-43
-42
-36
-38
-33
-28
-23
-20
-15
-12
-6
-1
3
8
7
12
15
21
19
22
21
21
21
20
19
17
23
23
22
22
21
23
23
22
22
19
18
17
15
15
14
13
11
10
8
6
8
7
9
7
4
5
5
8
6
7
5
4
3
8
3
6
2
6
8
5
10
9
10
4
6
7
8
9
5
8
9
8
9
9
5
7
8
6
6
8
8
8
6
5
4
8
10
7
5
5
10
9
7
8
5
4
3
3
6
8
3
3
1
1
-3
-3
-1
-2
-3
-3
1
-2
1
1
1
3
2
3
-3
-2
-1
1
2
-1
2
-3
2
-3
-4
-5
-4
-5
0
-6
-6
-8
-7
-5
-10
-11
-10
-9
-10
-10
-12
-11
-10
-12
-10
-8
-6
-4
-5
-5
-5
-6
-5
-5
-5
-6
-7
-5
-5
-5
-6
-9
-6
-5
-6
-7
-4
-4
-4
-6
-4
-6
-4
-5
-7
-4
-10
-9
-11
-12
-11
-11
-8
-8
-9
-7
-6
-4
-7
-5
-3
1
2
1
-1
2
-2
1
-1
3
2
-3
2
4
4
3
10
8
3
-10
-31
-57
-80
-96
-102
-98
-79
-57
-31
-5
11
26
31
36
32
29
27
17
15
9
5
6
6
8
7
5
8
3
5
5
3
4
3
2
-2
1
-4
-3
-7
-7
-6
-4
-3
-3
-3
-5
-4
-3
-6
-6
-7
-7
-11
-10
-12
-14
-16
-16
-17
-21
-25
-25
-26
-28
-31
-32
-34
-36
-37
-41
-39
-40
-39
-38
-39
-37
-37
-34
-31
-24
-25
-25
-19
-14
-13
-7
-4
1
4
7
8
11
13
12
12
15
17
18
17
20
18
17
15
20
14
10
11
9
11
10
9
8
9
10
9
8
8
8
5
6
8
8
7
11
10
10
11
10
11
11
10
5
10
3
5
7
3
9
11
12
9
9
8
8
5
4
4
4
3
2
3
3
5
4
4
0
1
0
-6
-6
-4
-8
-4
-6
-9
-6
-8
-7
-7
-7
-10
-7
-6
-9
-8
-12
-12
-12
-17
-18
-16
-20
-16
-21
-14
-17
-16
-15
-12
-13
-17
-15
-16
-12
-15
-17
-15
-8
-8
-9
-11
-12
-12
-11
-10
-10
-10
-11
-11
-12
-13
-11
-10
-13
-12
-16
-10
-14
-9
-12
-14
-11
-9
-9
-8
-9
-9
-8
-10
-8
-13
-11
-13
-12
-11
-12
-10
-6
-9
-9
-7
-6
-8
-5
-8
-9
-9
-4
-10
-9
-6
-9
-7
-7
-5
-5
-5
-6
-9
-9
-9
-8
-9
-12
-12
-9
-13
-12
-15
-13
-11
-9
-6
-6
-4
-6
-4
-6
-5
-3
-5
-8
-7
-7
-10
-8
-7
-5
-6
-6
-9
-7
-6
-2
2
5
3
-7
-18
-43
-68
-89
-99
-104
-94
-76
-55
-28
-6
12
26
25
33
28
25
19
16
14
10
7
6
4
1
-2
-2
-5
-4
-5
-3
-4
-2
-6
-4
-6
-7
-9
-6
-8
-6
-7
-9
-10
-8
-8
-11
-12
-8
-10
-12
-11
-10
-14
-10
-12
-17
-15
-20
-22
-26
-28
-31
-30
-31
-33
-33
-38
-35
-36
-36
-36
-36
-37
-36
-35
-33
-29
-27
-26
-22
-19
-19
-12
-7
-3
2
1
6
7
4
6
9
10
12
16
15
16
16
17
19
17
16
15
15
12
11
11
13
14
12
12
12
12
13
10
9
10
10
11
11
14
10
12
9
10
7
7
7
8
3
1
2
-1
3
4
2
-1
3
2
-1
0
1
1
3
-2
-3
1
-5
1
-1
-2
-2
-3
-6
-4
-8
-5
-7
-6
-4
-8
-7
-8
-10
-9
-12
-8
-8
-9
-6
-7
-7
-7
-6
-8
-9
-11
-9
-11
-6
-8
-8
-8
-13
-9
-13
-9
-9
-11
-12
-13
-10
-11
-9
-9
-13
-13
-16
-15
-17
-15
-17
-16
-16
-16
-14
-14
-11
-15
-14
-10
-10
-8
-8
-8
-9
-10
-13
-10
-11
-8
-7
-9
-6
-7
-5
-7
-4
-4
-3
-5
0
-2
-5
-6
-8
-9
-10
-8
-6
-7
-7
-9
-8
-8
-9
-9
-9
-9
-6
-9
-9
-9
-9
-6
-9
-8
-9
-10
-15
-15
-16
-21
-17
-13
-13
-10
-12
-9
-7
-10
-9
-10
-9
-10
-9
-11
-10
-11
-11
-13
-14
-14
-12
-8
-10
-8
-8
-10
-6
0
5
0
-13
-36
-57
-84
-103
-104
-107
-93
-73
-46
-18
4
20
26
30
26
21
19
12
8
5
4
1
-2
-4
-6
-6
-5
-7
-6
-3
-5
-6
-4
-6
-7
-7
-7
-7
-11
-6
-5
-11
-9
-4
-4
-3
-3
-1
-5
-7
-4
-7
-6
-8
-7
-9
-10
-16
-19
-17
-20
-22
-25
-28
-27
-32
-35
-34
-36
-36
-36
-38
-39
-37
-38
-40
-32
-35
-33
-29
-23
-20
-14
-11
-7
1
4
8
10
11
15
19
18
19
24
21
19
17
20
20
19
21
21
20
19
20
19
19
22
20
16
18
16
10
13
10
10
7
8
9
8
8
10
8
9
12
7
5
7
10
9
11
9
8
9
8
12
9
11
15
10
14
12
10
9
8
8
5
7
5
8
3
6
4
8
6
6
8
10
8
8
7
8
9
7
9
10
6
6
9
6
6
7
8
5
3
1
0
-1
2
3
2
4
2
1
4
2
1
5
5
5
4
5
4
3
8
5
5
4
3
0
5
1
-4
-3
-1
-2
-3
-2
-1
-3
0
-4
-1
-1
-1
-5
-5
-3
-5
-5
-3
-2
-3
-5
-4
-7
-6
-4
-8
-6
-4
-6
-7
-5
-9
-7
-9
-10
-9
-6
-8
-8
-7
-11
-9
-13
-10
-14
-13
-12
-17
-12
-14
-14
-10
-14
-17
-16
-14
-15
-17
-16
-15
-16
-12
-13
-12
-10
-9
-7
-7
-6
-7
-9
-9
-8
-12
-13
-11
-10
-9
-7
-9
-8
-5
-7
-7
-8
-6
2
5
-6
-18
-37
-65
-90
-107
-117
-115
-100
-81
-51
-26
-5
11
20
20
20
16
11
6
7
4
5
4
4
-2
-5
-4
-5
-6
-5
-9
-6
-6
-7
-9
-9
-5
-3
-9
-6
-7
-8
-5
-8
-7
-10
-9
-11
-13
-12
-13
-10
-10
-13
-14
-13
-15
-16
-16
-16
-20
-20
-23
-21
-29
-30
-31
-31
-36
-36
-36
-37
-35
-40
-37
-39
-38
-39
-37
-37
-33
-27
-28
-21
-22
-21
-13
-10
-7
-1
-1
3
6
9
11
12
15
9
15
16
12
12
10
7
5
6
5
2
0
1
-2
3
5
3
2
1
2
-1
6
8
6
6
4
6
3
1
4
3
2
0
-5
4
6
3
1
2
5
3
4
3
-1
2
5
2
2
2
7
7
3
6
6
6
5
7
6
6
7
7
9
6
3
6
6
4
3
1
4
3
3
1
-2
0
2
1
-2
-4
-1
-4
-6
-5
-4
1
-2
1
1
0
-3
-3
-4
-4
-6
-3
0
-2
-2
-5
-4
0
-6
-7
-4
-4
-5
-5
-3
-3
-6
-6
-6
-6
-9
-7
-6
-5
-6
-4
-4
-9
-4
-7
-5
-8
-6
-7
-4
-7
-7
-5
-7
-7
-11
-9
-9
-8
-9
-8
-10
-13
-10
-10
-13
-11
-11
-13
-7
-8
-11
-9
-12
-13
-13
-10
-9
-7
-13
-8
-11
-9
-11
-11
-12
-15
-12
-16
-17
-19
-21
-20
-25
-21
-24
-21
-18
-19
-19
-16
-15
-14
-13
-17
-14
-12
-10
-10
-12
-10
-14
-11
-12
-13
-13
-13
-9
-11
-11
-10
-7
0
0
-15
-30
-49
-76
-99
-112
-113
-105
-86
-61
-37
-13
7
14
24
21
21
19
14
10
6
3
1
0
1
-1
-3
3
0
1
3
-2
1
-6
-3
-6
-9
-6
-11
-9
-9
-9
-7
-10
-9
-10
-11
-10
-12
-9
-12
-13
-14
-17
-13
-16
-18
-21
-20
-21
-22
-24
-24
-26
-28
-33
-35
-35
-35
-35
-37
-42
-40
-40
-40
-40
-41
-38
-41
-39
-34
-35
-30
-21
-20
-17
-12
-7
-2
1
5
4
7
6
7
11
7
10
7
8
8
14
9
12
11
9
9
8
12
6
5
4
3
8
9
7
4
5
8
6
5
3
3
2
1
-3
1
1
4
3
6
4
1
-4
-4
-7
-11
-13
-15
-12
-17
-12
-8
-12
-9
-12
-9
-8
-4
-6
-8
-4
-6
-9
-8
-8
-7
-9
-5
-3
-3
0
1
1
0
1
-5
-5
0
2
4
4
4
8
5
2
6
9
5
8
4
4
3
3
0
2
3
4
2
4
0
4
1
2
6
3
3
3
2
2
1
3
-1
-1
-2
-3
-3
0
-1
3
0
-1
2
3
0
-7
-4
-6
-5
-4
-1
3
4
4
-1
4
3
6
2
4
5
1
3
8
5
2
6
1
-4
-6
-10
-6
-8
-4
-3
-5
-3
-5
-5
0
-3
0
-2
0
-4
-5
-7
-7
-6
-6
-6
-8
-6
-4
0
2
0
4
5
4
6
5
5
10
5
3
4
5
2
1
3
3
-3
0
-5
2
2
10
12
5
-6
-25
-47
-71
-92
-100
-102
-88
-65
-42
-14
8
27
35
39
37
34
26
19
18
13
12
10
7
9
7
7
6
5
8
3
4
4
7
5
0
-1
-1
-4
-3
-5
-7
-3
-3
-5
-6
0
-4
-6
-5
-8
-7
-8
-11
-8
-10
-15
-17
-14
-16
-17
-18
-21
-21
-25
-28
-30
-31
-31
-34
-35
-34
-33
-36
-33
-38
-36
-34
-31
-31
-27
-21
-16
-12
-10
-9
0
4
5
8
10
12
10
16
18
16
17
20
20
18
18
15
11
13
11
13
11
12
11
12
10
12
7
6
9
6
7
6
4
6
4
6
8
6
3
5
5
5
9
9
7
10
7
5
5
3
6
1
2
3
3
-1
1
6
-1
-3
-3
4
-1
-1
0
0
2
4
1
1
-2
0
-2
-5
-3
-1
0
2
2
3
-2
-3
4
-3
-5
-2
-1
-2
-3
-6
-6
-6
-4
-3
-9
-7
-10
-9
-8
-11
-9
-9
-8
-10
-11
-8
-9
-9
-8
-10
-8
-9
-8
-12
-10
-9
-9
-9
-8
-10
-6
-9
-10
-9
-9
-11
-10
-10
-10
-12
-15
-12
-15
-12
-14
-15
-16
-17
-17
-15
-16
-16
-15
-12
-16
-16
-13
-13
-10
-13
-12
-11
-10
-8
-7
-12
-12
-10
-12
-14
-11
-10
-9
-8
-12
-12
-12
-10
-13
-14
-16
-17
-20
-19
-18
-16
-17
-18
-14
-17
-15
-16
-12
-13
-12
-14
-11
-11
-13
-14
-14
-17
-14
-16
-14
-12
-17
-16
-15
-12
-14
-9
-6
-4
-11
-19
-37
-56
-84
-101
-111
-111
-96
-74
-52
-25
0
13
24
26
25
24
16
14
8
9
7
5
3
1
6
2
3
2
4
6
1
1
1
2
-3
-7
-5
-9
-9
-9
-9
-9
-11
-7
-13
-12
-10
-13
-12
-7
-8
-11
-13
-11
-15
-16
-16
-16
-20
-22
-22
-22
-29
-29
-26
-34
-33
-36
-37
-37
-39
-41
-37
-37
-39
-37
-32
-33
-35
-28
-24
-22
-16
-14
-12
-9
-6
0
4
2
8
10
11
12
12
13
16
14
11
14
13
16
16
14
16
14
13
14
12
13
16
12
14
11
8
8
8
9
5
6
3
4
2
-2
-1
-1
3
2
-1
4
4
8
7
3
3
5
6
4
1
0
-1
1
2
-1
1
-2
4
5
4
3
3
4
4
3
2
1
2
2
3
1
1
-1
1
1
0
-1
1
1
-2
-4
1
-2
-2
-1
-4
-4
1
-2
-6
-3
-6
-5
0
-3
-4
-5
0
4
0
3
2
4
4
1
0
4
0
0
2
-3
2
-1
-1
0
-3
0
-1
-3
-7
-6
-6
-7
-5
-9
-9
-7
-9
-9
-11
-10
-13
-7
-12
-13
-16
-13
-13
-10
-11
-10
-10
-14
-14
-16
-16
-14
-14
-14
-14
-16
-14
-15
-14
-12
-13
-15
-14
-12
-12
-13
-13
-12
-13
-13
-17
-17
-16
-20
-19
-22
-25
-20
-16
-18
-19
-14
-15
-13
-13
-11
-13
-9
-9
-12
-12
-8
-9
-13
-11
-12
-14
-13
-11
-10
-12
-11
-6
-6
1
0
-13
-23
-45
-69
-94
-108
-110
-103
-83
-60
-36
-13
10
17
26
32
29
25
21
19
16
11
9
7
8
7
7
8
4
2
1
2
-4
-4
-6
-8
-9
-8
-8
-11
-10
-8
-7
-9
-7
-7
-7
-3
-7
-9
-9
-9
-8
-9
-11
-15
-13
-16
-19
-20
-20
-23
-25
-26
-33
-32
-34
-37
-36
-39
-39
-38
-41
-43
-43
-44
-41
-38
-38
-35
-32
-26
-22
-20
-14
-13
-9
-7
-4
0
3
8
12
9
12
16
17
18
16
18
17
17
19
17
20
16
20
16
15
11
15
11
9
11
9
8
8
7
9
8
6
7
4
6
6
4
6
4
4
5
4
1
3
2
3
1
2
4
1
2
1
0
-3
0
1
1
-2
1
4
0
3
2
4
-2
3
3
3
4
-1
0
2
0
3
5
1
4
6
2
3
4
-1
4
0
0
-3
-5
0
0
-4
-4
-1
-2
1
0
-2
0
2
4
5
4
-1
2
1
1
0
-3
-4
-1
-4
-5
-5
-4
-3
-3
-5
-7
-3
-5
-2
-2
-4
-4
-9
-5
-6
-7
-5
-3
-3
-4
-4
-5
-5
-9
-8
-10
-9
-10
-8
-9
-9
-11
-7
-7
-8
-11
-10
-7
-11
-9
-11
-7
-7
-6
-4
-6
-9
-6
-10
-8
-13
-8
-14
-11
-9
-11
-8
-6
-12
-16
-13
-13
-13
-15
-14
-12
-14
-9
-11
-10
-10
-9
-6
-5
-5
-3
-5
0
-2
-5
-5
-3
-2
-3
-5
-4
-5
-5
-5
2
8
4
-7
-20
-46
-70
-92
-101
-103
-95
-74
-49
-23
-3
14
25
31
27
27
23
24
17
12
14
10
8
7
9
8
4
3
-1
-3
0
0
-2
3
3
3
5
2
2
1
-2
-4
-3
-1
0
1
3
2
2
4
-3
-2
-7
-6
-9
-9
-12
-12
-14
-11
-16
-19
-23
-25
-28
-29
-33
-34
-35
-33
-37
-37
-38
-39
-37
-40
-39
-35
-33
-32
-28
-23
-25
-20
-18
-15
-10
-3
0
4
5
7
9
14
12
13
12
9
10
9
13
10
8
12
13
14
13
13
13
15
16
12
16
10
11
12
9
5
3
6
7
8
9
8
9
12
9
9
10
11
10
12
13
8
13
7
9
5
4
3
-3
2
-2
0
2
0
2
-4
-2
-3
-5
-4
0
1
-3
-3
-7
-7
-6
-7
-5
-5
-9
-8
-6
-7
-5
-8
-5
-6
-6
-7
-5
-7
-5
-7
-4
-3
-3
-3
-3
-4
-6
-5
-5
-5
-9
-6
-8
-8
-6
-9
-7
-8
-9
-8
-10
-12
-13
-10
-11
-13
-8
-8
-6
-7
-7
-9
-6
-9
-9
-10
-8
-9
-10
-7
-10
-10
-11
-15
-15
-13
-12
-12
-14
-15
-16
-17
-14
-17
-17
-12
-15
-12
-12
-12
-11
-12
-13
-15
-14
-17
-13
-13
-13
-11
-10
-10
-11
-11
-9
-10
-12
-11
-9
-12
-13
-15
-13
-13
-13
-12
-12
-11
-13
-17
-17
-19
-19
-19
-20
-16
-16
-14
-17
-12
-13
-12
-9
-12
-13
-9
-8
-8
-7
-5
-5
-6
-6
0
-6
-4
-5
-5
-6
-3
2
6
10
6
-6
-24
-47
-73
-93
-103
-105
-90
-73
-49
-21
3
16
24
31
29
26
20
18
16
11
8
6
1
7
8
4
4
4
5
-1
0
3
-5
-5
-2
-1
-3
-4
-5
-4
-3
-7
-6
-5
-6
-4
-7
-8
-6
-10
-10
-13
-14
-17
-16
-15
-19
-16
-16
-16
-20
-22
-25
-27
-33
-33
-37
-35
-36
-38
-40
-39
-40
-38
-43
-41
-40
-38
-36
-32
-32
-30
-26
-20
-21
-15
-11
-10
-5
2
1
6
11
10
13
12
15
16
15
16
11
14
15
17
16
18
15
20
20
18
16
17
14
11
13
12
11
13
10
11
10
9
10
12
11
12
6
4
9
5
6
5
6
7
3
4
6
9
9
9
10
7
10
8
6
4
4
6
8
8
6
5
8
3
4
3
5
8
1
6
0
5
2
0
-3
0
-5
-3
-3
-4
-3
-4
0
-5
-6
-2
-6
-4
-7
-2
-5
-6
-6
-7
-5
-4
-6
-2
-2
-3
-6
-5
-6
-4
-4
-6
-6
-5
-6
-6
-6
-10
-8
-10
-7
-10
-9
-7
-7
-7
-7
-8
-8
-5
-11
-10
-13
-8
-12
-11
-13
-11
-8
-7
-7
-9
-11
-10
-12
-9
-7
-11
-9
-14
-12
-15
-15
-16
-18
-16
-22
-20
-15
-14
-14
-15
-12
-12
-11
-15
-13
-9
-12
-8
-14
-14
-16
-17
-19
-21
-19
-17
-19
-17
-16
-17
-16
-15
-13
-14
-15
-15
-8
-11
-13
-11
-9
-7
-5
-5
-6
-5
-9
-6
-9
-11
-9
-5
1
6
0
-11
-31
-53
-77
-98
-111
-109
-94
-74
-44
-25
-4
14
24
27
28
25
21
18
12
10
7
5
3
4
-5
-4
0
-6
-7
-13
-7
-9
-9
-12
-13
-8
-8
-7
-8
-9
-7
-7
-7
-10
-8
-10
-10
-12
-15
-12
-12
-14
-14
-17
-18
-19
-19
-19
-25
-24
-24
-25
-29
-30
-33
-37
-36
-37
-39
-45
-45
-42
-43
-43
-45
-44
-39
-39
-41
-32
-31
-31
-23
-25
-21
-21
-15
-8
-8
-6
-1
5
4
3
7
3
8
9
8
7
9
9
10
8
10
7
7
6
8
3
7
3
7
4
3
2
1
1
1
-2
3
-1
0
-2
1
-3
-2
-3
-4
-7
-6
-7
-6
-5
-10
-10
-11
-12
-16
-16
-19
-20
-20
-21
-21
-20
-25
-24
-26
-25
-25
-22
-22
-25
-27
-26
-23
-25
-22
-23
-23
-21
-21
-19
-14
-17
-14
-17
-15
-15
-16
-15
-13
-15
-15
-11
-10
-13
-8
-14
-13
-17
-14
-16
-16
-14
-13
-12
-16
-14
-13
-10
-7
-8
-9
-4
0
-6
-6
-5
-8
-6
-3
-8
-7
-5
-5
-6
-4
-5
-5
-7
-3
-5
-6
-4
0
-4
-7
-5
1
2
2
3
1
3
6
8
5
1
3
0
1
-3
4
4
2
2
3
2
-2
0
1
-4
-3
-5
-4
-5
-5
-7
-4
-4
-4
-4
-4
-1
3
4
4
7
4
7
9
5
8
9
7
9
6
6
8
6
7
11
10
16
18
20
21
13
2
-19
-46
-74
-89
-101
-93
-77
-49
-20
6
30
43
48
50
48
45
39
32
30
26
27
26
23
22
24
25
21
21
20
21
24
20
20
18
17
18
15
18
16
15
15
17
17
15
17
16
16
14
14
17
17
20
17
16
12
11
8
8
6
7
4
1
-2
-5
-8
-11
-12
-14
-14
-16
-20
-21
-20
-22
-22
-20
-19
-18
-16
-10
-9
-3
-3
5
11
15
18
19
22
23
27
27
25
29
27
31
27
29
30
32
27
25
26
23
24
25
23
21
20
19
21
21
23
20
19
19
20
19
19
17
20
18
18
18
18
15
13
12
9
9
8
12
11
11
13
11
8
7
8
7
8
5
7
3
6
8
7
3
2
3
3
4
-2
1
-3
-4
-5
-7
-7
-10
-8
-7
-12
-8
-13
-15
-15
-13
-14
-10
-14
-14
-11
-13
-10
-12
-11
-10
-8
-9
-9
-8
-13
-14
-12
-14
-14
-15
-13
-11
-10
-11
-13
-13
-15
-13
-11
-14
-14
-12
-12
-14
-11
-16
-12
-14
-18
-16
-14
-15
-14
-11
-12
-14
-14
-12
-11
-13
-14
-12
-14
-13
-11
-14
-11
-13
-13
-15
-13
-15
-12
-15
-14
-15
-14
-18
-16
-18
-18
-18
-16
-16
-15
-21
-18
-16
-21
-18
-22
-20
-23
-20
-22
-23
-18
-19
-17
-16
-15
-17
-13
-10
-12
-12
-16
-14
-14
-17
-15
-12
-10
-13
-11
-12
-10
-6
-2
-7
-11
-25
-43
-64
-91
-110
-113
-107
-89
-71
-43
-16
-1
14
19
21
22
19
13
9
4
-1
4
2
-1
1
2
1
-2
-2
0
-5
-6
-7
-7
-7
-7
-7
-5
-4
-6
-6
-8
-2
-7
-5
-9
-9
-9
-12
-8
-13
-13
-11
-15
-16
-21
-22
-19
-23
-22
-23
-26
-31
-30
-32
-39
-38
-42
-42
-43
-47
-51
-50
-49
-48
-44
-45
-43
-45
-43
-40
-32
-37
-28
-25
-21
-16
-8
-7
-5
0
3
5
8
8
12
12
12
13
10
14
11
10
9
10
12
8
9
9
9
9
11
5
4
2
2
0
-2
0
-4
-5
-5
-11
-7
-8
-12
-8
-9
-8
-7
-8
-6
-11
-10
-11
-9
-2
-2
-4
-6
-5
-6
-7
-9
-11
-13
-8
-12
-13
-13
-11
-6
-10
-12
-12
-13
-10
-14
-11
-14
-11
-15
-12
-13
-17
-13
-9
-8
-9
-13
-9
-13
-13
-15
-12
-17
-13
-16
-12
-15
-12
-8
-13
-12
-14
-11
-9
-8
-10
-11
-11
-13
-17
-16
-16
-18
-17
-18
-22
-20
-18
-17
-17
-15
-19
-16
-17
-12
-14
-13
-13
-11
-13
-14
-13
-13
-11
-8
-10
-8
-8
-9
-10
-8
-9
-8
-10
-8
-9
-8
-11
-8
-7
-6
-5
-7
-6
-9
-8
-9
-12
-10
-11
-6
-9
-10
-8
-9
-9
-13
-10
-13
-15
-15
-16
-17
-14
-12
-8
-9
-10
-6
-7
-7
-9
-11
-8
-12
-11
-10
-9
-9
-10
-8
-9
-6
-10
-8
-9
-9
0
6
5
-4
-14
-33
-56
-82
-98
-108
-109
-94
-74
-49
-24
-8
-4
-5
-6
-14
-19
-23
-31
-34
-34
-37
-32
-33
-30
-27
-25
-23
-20
-16
-19
-15
-12
-11
-4
-4
4
7
7
14
13
17
17
16
16
14
13
16
16
13
14
11
9
10
7
6
5
4
1
4
-1
-5
-7
-8
-10
-13
-15
-15
-19
-21
-25
-26
-27
-27
-29
-31
-29
-27
-25
-23
-21
-15
-14
-12
-11
-5
2
8
14
16
19
19
23
26
26
28
31
29
34
31
27
28
32
28
33
31
31
31
32
31
32
29
29
28
27
27
25
24
21
21
21
20
19
19
18
18
18
18
18
18
17
20
18
19
20
19
16
14
9
11
12
12
12
13
11
12
10
11
9
11
9
8
8
7
7
8
8
7
7
7
11
10
8
8
10
7
7
8
6
7
7
7
3
8
6
7
4
4
8
6
7
4
4
6
3
3
4
3
5
3
3
6
3
8
3
5
3
5
5
8
3
3
2
2
3
-2
-2
1
-4
3
0
0
0
1
0
0
3
4
1
6
1
5
3
1
2
-1
2
2
4
1
3
4
3
2
2
-2
-4
-4
-1
-3
4
3
3
8
3
2
2
-1
-2
-3
-6
-9
-9
-13
-6
-7
-1
-7
-7
-7
-8
-4
-5
-3
0
-2
0
1
3
3
-2
2
2
3
-3
-2
1
3
3
3
8
14
11
2
-19
-36
-64
-85
-96
-98
-93
-74
-49
-22
-1
18
23
34
34
30
24
19
13
11
5
6
4
6
2
3
-1
-1
3
5
5
1
1
-3
-1
-2
-5
-5
-6
-8
-8
-7
-8
-9
-6
-4
-5
-6
-5
-5
-7
-8
-11
-7
-10
-9
-8
-8
-13
-12
-15
-21
-23
-23
-25
-29
-32
-31
-31
-37
-41
-36
-39
-43
-41
-41
-40
-39
-36
-35
-35
-31
-27
-27
-24
-20
-15
-13
-8
-7
-4
0
4
10
11
14
11
20
20
20
19
18
19
16
16
13
9
10
9
7
7
8
7
8
5
5
4
8
3
4
4
3
0
0
2
-2
-1
0
1
-1
-4
-4
-5
-1
0
-1
-1
-3
0
-4
-6
-5
-3
0
0
-2
-4
-2
-2
-5
-2
-6
-6
-4
-6
-6
-6
-5
-5
-5
-7
-8
-9
-8
-8
-12
-13
-15
-17
-15
-15
-12
-14
-15
-10
-13
-12
-12
-13
-14
-14
-12
-11
-14
-14
-13
-12
-14
-14
-14
-15
-14
-13
-13
-17
-18
-12
-17
-13
-11
-13
-13
-15
-15
-14
-15
-11
-13
-13
-11
-16
-12
-14
-11
-12
-13
-14
-18
-14
-16
-14
-16
-16
-19
-21
-20
-22
-19
-20
-16
-19
-21
-18
-17
-16
-16
-18
-18
-18
-17
-17
-16
-15
-17
-18
-14
-13
-12
-13
-14
-14
-14
-11
-13
-13
-12
-14
-12
-15
-14
-16
-15
-16
-19
-20
-19
-23
-22
-24
-26
-29
-27
-24
-25
-25
-22
-20
-23
-23
-19
-15
-18
-15
-17
-14
-14
-15
-16
-12
-12
-13
-13
-12
-11
-5
0
0
-4
-15
-30
-52
-77
-101
-105
-108
-98
-86
-58
-33
-15
6
15
20
21
16
14
7
0
-7
-6
-7
-8
-7
-7
-8
-11
-13
-12
-10
-11
-8
-10
-6
-10
-10
-12
-10
-10
-6
-12
-8
-15
-12
-15
-13
-13
-14
-13
-14
-14
-14
-15
-14
-16
-16
-16
-18
-17
-17
-21
-21
-29
-25
-31
-28
-34
-34
-35
-39
-40
-40
-43
-41
-42
-44
-42
-45
-45
-47
-47
-40
-37
-33
-28
-23
-20
-17
-11
-7
-4
-3
3
4
3
6
3
7
7
3
7
8
5
6
6
5
3
3
-1
2
0
-6
-7
-8
-9
-8
-9
-7
-9
-10
-9
-11
-9
-7
-8
-6
-10
-9
-10
-8
-9
-5
-8
-6
-6
-4
-8
-7
-10
-5
-5
-7
-4
-7
-5
-6
-6
0
-3
1
3
4
2
4
3
6
4
5
3
-1
-1
2
-1
6
2
3
3
4
1
5
6
5
8
7
10
6
9
3
6
6
5
5
-1
3
-1
-4
-1
-1
-3
1
-5
1
1
1
-2
-1
3
-2
1
3
2
2
2
-3
-5
-1
-4
-3
-3
4
3
-2
-4
-4
0
1
3
5
7
9
11
10
8
9
10
10
6
6
3
6
6
8
7
6
5
6
6
8
3
8
11
10
11
11
11
11
13
6
7
11
7
6
8
5
6
2
2
-2
1
1
3
2
-1
2
3
6
5
8
8
8
6
7
5
8
3
6
3
3
2
1
3
1
1
2
8
12
14
16
-1
-19
-44
-69
-88
-96
-95
-82
-61
-34
-14
12
27
37
39
38
35
27
22
20
16
12
11
12
8
4
6
10
7
3
4
6
3
6
2
5
-1
4
1
1
-2
0
-1
1
-6
-3
-4
-3
-6
-7
-6
-6
-6
-8
-12
-16
-16
-16
-17
-18
-21
-21
-22
-24
-27
-25
-28
-31
-33
-35
-39
-38
-41
-42
-43
-43
-45
-41
-39
-36
-37
-32
-24
-27
-21
-16
-11
-6
-3
1
6
12
9
14
12
15
15
15
13
17
14
16
15
17
13
17
17
18
15
15
12
15
13
15
12
10
10
11
9
8
10
9
11
9
4
1
4
4
5
5
8
5
5
6
3
3
3
5
5
8
9
10
6
11
9
9
9
9
7
11
12
10
9
9
10
7
6
3
3
3
2
2
-3
1
0
3
-3
-1
-2
-2
-3
0
-3
-3
-3
-2
0
0
0
-1
0
0
1
0
2
2
5
6
4
3
4
6
6
5
4
3
4
3
4
2
4
3
4
2
0
1
4
0
0
3
2
-1
4
1
-3
0
-2
-3
0
-6
-4
-6
-4
-6
-7
-7
-7
-11
-9
-11
-18
-21
-21
-20
-21
-18
-17
-16
-14
-11
-13
-13
-11
-10
-12
-13
-13
-9
-10
-11
-11
-12
-11
-13
-8
-7
-9
-8
-7
-5
-5
2
1
3
2
1
-3
2
0
1
-2
0
-4
-1
-4
2
-3
-2
0
-2
-1
-1
3
7
4
-8
-23
-42
-73
-87
-104
-101
-92
-73
-47
-19
4
19
32
34
33
29
30
20
14
14
12
12
8
10
6
5
8
11
8
3
7
5
2
1
1
-2
-1
-4
-3
-1
-7
-6
-8
-10
-10
-9
-8
-9
-8
-6
-9
-8
-9
-6
-8
-12
-13
-15
-19
-22
-25
-24
-26
-29
-34
-34
-36
-37
-42
-38
-42
-43
-40
-45
-45
-46
-44
-42
-40
-38
-35
-28
-28
-27
-20
-18
-11
-10
-4
0
3
6
8
9
11
11
15
12
11
9
12
14
15
13
12
12
14
14
9
8
9
7
9
7
3
3
8
8
6
5
6
4
8
3
1
5
3
-1
3
3
2
2
1
-5
-5
-4
-3
-8
-7
-4
-3
-1
4
2
-2
-1
-2
0
-2
-2
-4
-4
-5
-5
-6
0
-2
-3
0
-3
-6
-4
-6
-6
-7
-7
-11
-6
-6
-8
-10
-8
-9
-12
-11
-11
-14
-13
-12
-12
-10
-10
-9
-10
-8
-11
-11
-16
-15
-16
-17
-12
-16
-17
-14
-14
-14
-14
-17
-18
-18
-16
-16
-16
-17
-15
-14
-15
-16
-19
-20
-18
-20
-22
-23
-24
-23
-24
-29
-26
-23
-22
-22
-23
-20
-22
-20
-21
-25
-25
-26
-24
-25
-25
-23
-26
-22
-25
-29
-28
-30
-33
-29
-30
-34
-38
-33
-36
-31
-30
-33
-28
-27
-27
-26
-21
-20
-21
-21
-22
-20
-20
-23
-18
-21
-20
-15
-15
-15
-20
-16
-16
-11
-6
0
-6
-16
-35
-58
-82
-105
-112
-117
-104
-83
-57
-32
-10
6
20
20
26
20
16
12
7
5
1
0
-7
-5
-4
-5
-8
-7
-11
-11
-9
-10
-9
-10
-11
-10
-13
-15
-12
-13
-15
-14
-14
-15
-15
-14
-18
-16
-19
-22
-20
-19
-17
-17
-23
-21
-24
-25
-25
-25
-25
-29
-32
-32
-34
-39
-40
-41
-47
-40
-44
-42
-46
-44
-46
-44
-47
-44
-43
-40
-37
-37
-34
-29
-22
-20
-17
-11
-8
-3
-1
8
8
10
10
14
16
17
19
22
24
26
24
26
24
22
22
19
19
18
19
17
17
17
18
19
18
17
15
13
13
12
11
10
9
9
8
7
10
11
12
10
8
7
7
5
3
1
4
4
4
4
3
4
5
-1
0
-1
-3
-2
-2
-2
0
-2
-4
-5
-6
-7
-6
-6
-9
-7
-8
-5
-4
-5
-3
-7
-8
-8
-9
-6
-9
-7
-7
-7
-10
-11
-11
-13
-10
-12
-11
-8
-12
-13
-11
-11
-8
-8
-7
-8
-8
-8
-8
-12
-10
-12
-11
-9
-9
-10
-12
-14
-14
-14
-16
-16
-17
-15
-13
-14
-12
-13
-12
-13
-12
-13
-13
-13
-15
-14
-15
-14
-15
-15
-17
-15
-17
-15
-17
-19
-16
-19
-15
-13
-14
-11
-6
-6
-3
-3
2
2
2
3
4
5
7
8
7
7
8
5
8
8
6
8
11
20
18
10
-3
-23
-50
-74
-90
-98
-89
-74
-52
-25
1
18
31
38
41
35
35
28
28
24
19
16
20
15
14
9
13
8
13
11
9
8
10
9
7
8
9
8
10
12
12
10
13
11
16
10
12
10
11
9
9
8
9
12
10
8
8
8
8
5
2
0
-5
-4
-6
-8
-11
-10
-10
-11
-12
-13
-15
-10
-12
-11
-11
-11
-7
-7
-6
-2
3
8
11
18
19
24
28
29
29
34
37
41
41
39
43
42
40
40
41
44
44
42
43
42
41
39
38
39
40
39
40
33
37
34
37
32
31
30
29
30
30
26
27
25
23
22
20
20
18
18
17
18
17
19
20
17
24
19
19
17
15
14
13
14
12
10
12
8
9
7
9
8
6
8
12
11
7
9
8
6
5
7
5
3
6
9
8
12
9
8
12
11
8
9
7
9
9
9
7
4
5
2
1
3
1
2
2
2
-1
1
4
4
1
2
2
3
-1
0
-2
-4
-5
-6
-13
-14
-15
-13
-13
-12
-14
-13
-14
-12
-14
-15
-17
-14
-17
-15
-17
-21
-17
-21
-19
-20
-20
-22
-24
-24
-25
-27
-26
-26
-27
-28
-29
-24
-26
-24
-27
-26
-24
-25
-24
-23
-23
-21
-20
-20
-24
-20
-25
-20
-19
-19
-19
-21
-23
-22
-19
-13
-11
-18
-28
-47
-72
-93
-106
-118
-116
-106
-85
-55
-33
-13
8
12
14
11
8
2
-4
-8
-12
-10
-13
-12
-10
-11
-15
-14
-15
-15
-17
-21
-19
-21
-18
-16
-21
-18
-19
-21
-19
-21
-18
-21
-21
-22
-22
-23
-22
-20
-23
-22
-23
-21
-26
-26
-26
-28
-24
-30
-28
-33
-31
-36
-38
-43
-43
-42
-41
-44
-45
-43
-43
-45
-41
-44
-43
-43
-46
-43
-41
-36
-32
-30
-26
-25
-20
-16
-13
-9
-6
-5
-4
-3
-3
-2
0
2
3
1
1
4
2
0
1
2
3
4
6
6
3
4
5
6
3
4
3
3
4
1
6
0
4
4
2
-1
1
0
2
2
2
-2
-3
-5
1
0
-1
1
2
4
-3
-6
-6
-6
-10
-6
-11
-8
-6
-6
-5
-6
2
-3
0
-4
-5
0
-6
-7
-9
-9
-11
-13
-9
-11
-11
-11
-10
-7
-11
-8
-10
-8
-10
-12
-9
-9
-7
-7
-5
-9
-9
-9
-9
-10
-11
-14
-18
-16
-19
-18
-20
-19
-18
-22
-19
-17
-18
-16
-16
-17
-14
-12
-11
-18
-15
-17
-15
-13
-14
-14
-17
-14
-11
-13
-11
-13
-9
-10
-8
-10
-12
-15
-13
-11
-16
-13
-16
-15
-17
-16
-11
-9
-16
-17
-13
-15
-12
-15
-15
-15
-18
-21
-18
-19
-20
-21
-16
-20
-19
-17
-15
-13
-10
-15
-9
-8
-6
-4
-5
-4
-5
-9
-7
-6
-10
-9
-9
-8
-11
-12
-8
-5
-3
0
-4
-15
-31
-55
-80
-99
-109
-109
-98
-78
-55
-25
-6
8
16
18
19
18
14
10
9
5
3
2
3
-2
-3
-5
-8
-10
-13
-13
-13
-12
-11
-12
-13
-10
-13
-12
-12
-14
-14
-18
-15
-19
-21
-16
-14
-15
-17
-19
-17
-18
-16
-22
-21
-26
-25
-24
-23
-23
-25
-29
-28
-32
-36
-37
-38
-38
-42
-44
-43
-47
-47
-44
-45
-44
-44
-45
-44
-40
-42
-37
-33
-29
-28
-20
-17
-12
-7
-5
-1
6
7
7
11
12
16
16
18
18
19
19
20
22
22
22
21
17
14
15
13
15
16
18
18
19
21
17
14
14
9
8
5
3
1
2
-3
-5
-4
-4
-8
-5
-11
-9
-9
-8
-9
-8
-5
-7
-6
-5
-4
-4
-3
-5
-3
4
1
2
-3
1
3
3
2
6
6
8
7
8
8
8
3
5
4
6
3
-2
-1
0
2
3
-1
2
5
4
4
6
3
7
5
8
6
3
4
8
9
6
4
2
2
-2
0
2
-1
4
4
1
0
2
3
4
2
-1
-1
6
5
6
5
4
8
6
5
6
9
8
9
9
9
8
9
9
6
10
4
7
7
7
4
8
7
8
6
7
6
4
8
4
3
4
-2
2
-2
-6
-5
-7
-6
-8
-5
-7
-7
-2
-4
-5
-5
-5
-5
-1
-4
-2
-3
-4
-7
-4
-5
-4
-5
-5
-2
-3
0
2
3
8
12
3
-12
-29
-54
-81
-96
-105
-100
-85
-60
-35
-9
11
24
33
33
36
31
26
21
19
20
14
11
14
9
6
5
7
8
6
7
6
4
2
2
-2
4
1
2
3
2
2
0
-6
-2
0
0
0
-5
0
-4
-7
-8
-13
-10
-9
-13
-13
-13
-12
-14
-12
-15
-19
-18
-19
-20
-25
-23
-24
-22
-26
-26
-30
-29
-30
-29
-29
-24
-23
-19
-16
-11
-8
-5
2
3
7
7
15
18
20
24
27
27
27
29
32
33
32
36
36
32
35
34
30
31
31
27
27
28
31
28
26
27
29
28
28
27
23
23
22
21
21
21
19
21
20
15
21
17
16
16
15
16
14
14
13
13
13
12
12
7
10
8
7
9
4
7
8
9
8
9
6
8
7
7
3
3
3
1
-1
5
2
4
6
9
6
5
3
4
0
0
-1
2
-5
-5
-3
-1
-2
-3
0
2
5
3
4
-3
-2
-3
-3
-2
-3
-2
0
-3
-4
-6
-7
-8
-7
-4
-6
-12
-7
-11
-7
-9
-6
-8
-6
-8
-12
-12
-15
-11
-9
-9
-11
-10
-10
-8
-11
-12
-10
-10
-11
-8
-8
-9
-6
-9
-10
-8
-9
-10
-10
-11
-11
-13
-8
-13
-11
-11
-15
-12
-14
-13
-15
-12
-13
-14
-16
-16
-15
-19
-16
-17
-16
-15
-15
-12
-13
-12
-13
-12
-13
-12
-6
-10
-8
-7
-6
-9
-8
-8
-6
-9
-8
-9
-8
-8
-4
0
0
-12
-26
-44
-69
-89
-104
-106
-101
-85
-61
-34
-12
8
14
18
21
22
17
10
9
5
5
3
0
-2
-3
-3
-7
-5
-9
-9
-5
-7
-8
-13
-10
-10
-12
-14
-13
-13
-13
-15
-17
-15
-14
-14
-12
-17
-18
-19
-16
-18
-16
-12
-12
-13
-13
-13
-16
-16
-23
-26
-29
-34
-34
-35
-35
-38
-43
-44
-50
-50
-50
-54
-51
-52
-50
-50
-46
-44
-40
-38
-36
-31
-24
-24
-20
-15
-13
-10
-9
-3
1
-2
1
7
6
6
8
7
6
5
5
7
6
6
5
6
8
8
5
7
6
6
5
8
8
6
2
6
6
5
1
1
1
-1
1
2
1
3
-1
3
3
2
4
5
3
3
3
1
2
2
0
2
2
3
2
-1
-2
-2
0
-5
-3
-3
2
1
-4
-6
-6
-4
-9
-8
-9
-6
-2
-2
1
-2
-2
-4
-2
-5
-1
-2
-1
-4
-8
-4
-5
-7
-7
-9
-7
-6
-8
-8
-11
-8
-13
-14
-14
-14
-15
-14
-14
-14
-12
-12
-12
-11
-10
-11
-8
-11
-11
-8
-11
-13
-11
-13
-13
-13
-21
-18
-16
-16
-17
-18
-19
-16
-19
-18
-20
-22
-23
-20
-19
-19
-20
-20
-17
-19
-20
-21
-18
-19
-21
-21
-20
-21
-16
-17
-23
-25
-20
-22
-21
-24
-28
-29
-26
-25
-27
-26
-24
-24
-24
-22
-22
-23
-18
-22
-24
-25
-24
-24
-25
-27
-24
-25
-24
-23
-22
-21
-17
-20
-16
-15
-11
-11
-15
-32
-50
-77
-98
-114
-120
-114
-99
-73
-46
-22
-4
11
16
21
20
16
12
4
4
3
-6
-13
-9
-12
-12
-12
-11
-8
-9
-6
-8
-8
-6
-7
-4
-8
-6
-6
-9
-8
-7
-9
-8
-10
-13
-14
-17
-14
-13
-17
-17
-18
-18
-21
-19
-17
-21
-23
-23
-23
-26
-28
-29
-30
-31
-35
-38
-40
-41
-42
-42
-40
-44
-41
-42
-44
-46
-40
-36
-39
-31
-26
-23
-17
-13
-11
-5
3
5
11
11
12
16
18
17
17
17
17
20
19
21
21
21
21
21
22
20
21
21
24
20
20
22
23
26
26
26
26
30
28
30
28
28
31
29
29
30
30
29
30
27
26
23
22
18
21
21
21
22
21
20
19
25
22
24
22
24
19
19
16
16
19
15
17
19
18
15
14
18
18
19
17
18
19
18
11
17
12
11
15
14
12
11
14
12
11
10
10
7
12
7
7
7
8
5
2
2
5
4
4
2
3
5
3
4
3
3
3
3
4
4
0
1
3
0
-2
-1
-4
1
1
-1
2
2
1
0
1
3
-1
0
2
-3
0
-5
-6
-5
-5
-8
-6
-3
-5
-8
-5
-5
-8
-8
-6
-8
-10
-11
-12
-10
-14
-17
-16
-21
-20
-17
-17
-18
-16
-16
-15
-11
-9
-10
-10
-11
-7
-7
-11
-9
-4
-8
-6
0
-5
-5
-2
1
-4
-5
-2
1
6
7
8
3
-3
-16
-42
-69
-94
-115
-117
-114
-96
-72
-40
-19
3
14
22
23
25
21
15
10
5
6
-3
4
-2
2
0
-2
0
-2
0
-3
-6
-7
-4
-3
-3
-2
1
2
0
-3
-5
-5
-4
-6
-4
-8
-7
-6
-4
-4
-3
1
0
-3
-4
-6
-7
-14
-12
-12
-15
-17
-16
-17
-18
-19
-21
-22
-22
-21
-26
-33
-26
-29
-29
-27
-28
-28
-26
-20
-17
-16
-13
-12
-6
-5
0
3
5
10
12
11
12
18
20
21
19
16
19
19
21
18
19
21
22
18
18
18
19
18
20
18
20
18
18
16
17
15
16
16
15
17
11
15
18
16
16
14
16
17
11
16
16
16
16
13
13
15
14
14
12
15
11
8
12
10
5
6
8
6
5
5
3
3
4
-3
2
1
4
4
2
3
-1
-3
1
1
-3
-2
-5
-3
-2
-3
-5
-3
-6
-4
-6
-6
-8
-5
-7
-7
-4
-8
-4
-7
-9
-7
-5
-9
-9
-10
-9
-11
-8
-9
-5
-8
-5
-7
-7
-8
-11
-8
-11
-13
-13
-13
-13
-12
-14
-15
-10
-15
-15
-15
-15
-16
-16
-15
-12
-11
-13
-14
-12
-13
-15
-14
-17
-15
-15
-16
-16
-13
-15
-15
-14
-13
-8
-12
-9
-14
-14
-13
-15
-16
-19
-20
-19
-20
-19
-18
-19
-12
-14
-14
-15
-15
-11
-13
-13
-14
-12
-17
-13
-13
-11
-10
-13
-9
-9
-9
-8
-8
-12
-13
-7
-5
0
-3
-10
-23
-44
-66
-88
-106
-108
-100
-83
-57
-32
-10
11
19
25
26
24
19
14
10
5
0
-3
-8
-8
-6
-7
-6
-7
-4
-9
-7
-11
-10
-9
-10
-12
-13
-11
-11
-12
-11
-10
-12
-14
-12
-11
-13
-17
-12
-13
-17
-16
-15
-17
-18
-21
-19
-20
-22
-22
-25
-24
-29
-25
-28
-31
-32
-34
-37
-41
-39
-41
-38
-39
-41
-39
-42
-41
-39
-39
-37
-33
-28
-24
-22
-19
-19
-15
-11
-7
-5
-5
1
3
2
4
4
6
9
9
10
12
6
9
8
7
11
10
5
4
5
3
5
5
6
6
4
3
5
2
0
1
3
6
3
3
5
4
5
4
-1
-1
-5
0
-3
-4
-2
-2
-5
0
-6
-6
-6
-5
-7
-9
-5
-5
-8
-7
-8
-11
-8
-8
-9
-8
-11
-10
-8
-8
-10
-11
-13
-12
-14
-17
-17
-16
-15
-18
-19
-20
-17
-17
-17
-17
-19
-16
-15
-14
-16
-18
-18
-16
-14
-14
-17
-15
-13
-14
-14
-11
-8
-14
-11
-11
-14
-11
-14
-9
-14
-15
-16
-13
-13
-12
-14
-14
-13
-14
-12
-11
-9
-11
-8
-12
-10
-14
-12
-12
-14
-14
-19
-18
-13
-20
-18
-19
-17
-18
-24
-23
-20
-22
-23
-25
-21
-18
-20
-21
-17
-20
-22
-21
-23
-20
-24
-21
-19
-21
-18
-20
-17
-18
-18
-17
-19
-14
-14
-13
-13
-11
-13
-11
-15
-13
-12
-12
-12
-12
-14
-16
-14
-10
-2
-3
-7
-23
-36
-64
-85
-101
-104
-97
-82
-59
-33
-8
10
28
34
35
33
28
24
16
16
13
14
11
8
8
5
3
8
5
8
8
5
7
1
2
7
8
8
6
4
6
5
4
3
3
5
4
2
1
1
-1
1
0
-7
-6
-4
-4
-5
-9
-8
-10
-11
-16
-10
-15
-16
-21
-21
-20
-24
-23
-23
-24
-25
-22
-21
-16
-18
-18
-16
-16
-10
-12
-6
-7
-2
-2
1
4
5
13
16
19
19
24
23
28
25
25
24
26
25
27
23
22
20
21
22
19
22
19
22
21
18
16
17
17
18
15
14
16
16
13
11
12
12
12
12
11
10
11
10
9
8
9
10
12
13
13
13
12
11
10
11
11
12
11
8
9
10
11
12
10
10
6
8
7
7
4
3
2
1
3
-1
-1
0
-5
-7
-5
-7
-9
-7
-5
-8
-11
-7
-6
-9
-9
-12
-7
-9
-8
-10
-11
-11
-13
-15
-13
-10
-7
-9
-9
-13
-11
-10
-4
-4
-4
-7
-6
-6
-8
-8
-7
-6
-3
-3
-7
-8
-4
-5
-9
-12
-11
-9
-8
-9
-7
-10
-9
-9
-11
-14
-12
-14
-12
-14
-12
-13
-12
-10
-11
-14
-12
-14
-13
-15
-17
-12
-13
-15
-10
-14
-8
-7
-7
-4
-3
-4
-7
-2
-2
-3
1
2
1
0
3
0
-3
3
-2
-5
0
-1
-1
4
9
7
3
-12
-32
-54
-80
-93
-98
-93
-76
-50
-23
4
19
35
41
44
41
35
32
25
21
19
17
11
12
13
11
8
6
7
3
3
6
3
5
3
3
2
2
3
2
5
-1
-3
-3
1
1
2
2
3
3
4
5
3
1
1
1
0
-4
-5
-9
-7
-10
-11
-17
-13
-21
-20
-20
-21
-25
-24
-25
-28
-28
-28
-30
-28
-30
-26
-27
-23
-21
-16
-16
-10
-9
-4
0
0
3
7
11
16
17
16
19
21
23
22
24
23
20
22
21
18
16
20
14
13
14
12
11
9
8
8
5
7
7
5
8
4
5
6
2
5
8
4
6
5
4
5
5
1
4
2
1
4
4
2
4
0
4
0
0
-2
-4
-2
-4
-1
0
2
-1
0
-2
-2
-6
-4
-6
-9
-8
-8
-7
-5
-3
-2
-3
-1
-3
-5
-6
-5
-6
-4
-6
-8
-9
-10
-14
-16
-13
-15
-16
-14
-14
-13
-14
-15
-13
-15
-14
-13
-16
-14
-15
-13
-15
-17
-13
-13
-13
-14
-12
-12
-13
-10
-9
-12
-13
-13
-12
-14
-12
-16
-14
-15
-13
-11
-12
-12
-11
-8
-11
-12
-12
-13
-11
-15
-12
-12
-15
-16
-16
-20
-18
-13
-16
-18
-17
-20
-22
-21
-23
-23
-23
-23
-19
-21
-24
-27
-25
-26
-30
-33
-33
-31
-33
-32
-33
-28
-30
-27
-26
-23
-25
-25
-25
-24
-24
-25
-22
-25
-26
-25
-26
-28
-26
-26
-30
-26
-22
-20
-16
-29
-37
-57
-82
-102
-120
-123
-116
-101
-82
-54
-33
-10
4
10
12
7
6
-1
-3
-10
-13
-10
-13
-15
-18
-19
-17
-17
-18
-16
-15
-19
-16
-18
-18
-19
-19
-17
-15
-17
-18
-19
-18
-19
-18
-19
-21
-19
-21
-22
-23
-23
-23
-25
-24
-27
-27
-27
-27
-29
-31
-31
-31
-34
-34
-36
-37
-37
-41
-41
-43
-43
-40
-42
-42
-47
-44
-43
-46
-43
-42
-41
-38
-31
-29
-21
-18
-17
-11
-5
1
3
4
5
5
6
11
10
11
17
16
14
15
15
13
15
17
17
16
18
13
15
16
16
19
13
17
19
16
20
19
18
14
13
11
11
11
16
16
18
12
14
15
14
13
17
20
19
23
23
23
23
24
22
19
19
24
25
24
22
23
24
23
22
21
22
21
23
19
19
21
18
21
18
16
16
18
14
14
14
13
10
12
5
3
-5
-7
-7
-13
-18
-15
-17
-19
-18
-26
-23
-23
-25
-24
-29
-28
-31
-26
-27
-24
-24
-26
-21
-20
-21
-22
-19
-20
-20
-21
-21
-18
-19
-23
-20
-20
-21
-20
-21
-24
-23
-24
-20
-23
-22
-24
-24
-19
-19
-20
-21
-21
-22
-22
-27
-25
-25
-23
-19
-21
-19
-15
-12
-15
-13
-10
-8
-9
-6
-6
-6
-8
-2
-7
-7
-4
-7
-6
-9
-4
-7
-2
5
8
12
3
-13
-32
-59
-84
-100
-101
-98
-77
-50
-24
4
22
35
43
46
43
40
38
30
27
24
25
23
22
21
19
20
15
16
16
13
11
10
6
7
6
9
7
9
11
11
10
12
10
9
9
5
0
4
4
1
1
-1
-3
-2
-3
-2
0
-2
-3
-9
-9
-10
-13
-12
-19
-19
-21
-25
-26
-24
-27
-28
-26
-30
-30
-29
-27
-26
-25
-22
-19
-15
-12
-7
-2
6
7
11
14
17
21
22
21
21
23
23
23
22
21
23
23
22
20
18
16
14
15
14
8
10
7
9
7
7
7
5
4
5
5
7
11
8
7
5
7
7
5
1
1
2
0
-1
-3
-3
0
-3
-4
-3
-2
-2
-1
2
-2
-3
1
5
3
-2
0
-1
3
2
5
4
2
4
3
0
0
4
1
1
1
-2
-4
-1
-3
-3
-3
-2
-1
-4
-4
-4
-6
-7
-5
-4
-5
1
1
0
-1
-5
-1
0
-3
-3
-6
-5
-3
-3
-2
0
0
4
2
0
-1
1
1
6
3
1
4
3
6
4
1
4
6
2
1
-3
2
-5
-1
-1
-5
-5
-5
-8
-11
-13
-12
-12
-10
-12
-14
-10
-6
-10
-9
-7
-8
-9
-8
-7
-8
-9
-4
-3
-3
-6
0
-7
-9
-4
-6
-6
-9
-5
1
8
8
4
-9
-31
-52
-72
-90
-99
-97
-86
-60
-37
-12
7
21
25
28
27
24
21
11
11
9
7
3
5
2
2
0
-6
-7
-5
-4
-9
-4
-9
-7
-5
-10
-7
-8
-7
-10
-11
-10
-8
-8
-11
-10
-11
-15
-18
-21
-26
-26
-27
-29
-26
-29
-27
-28
-29
-31
-28
-31
-36
-41
-39
-35
-38
-39
-42
-41
-41
-43
-43
-49
-46
-49
-51
-51
-47
-40
-37
-28
-23
-16
-9
-7
1
4
10
14
17
16
19
19
20
24
17
17
14
13
9
6
4
2
2
3
4
8
10
9
5
5
5
6
4
5
7
9
12
12
11
10
14
11
13
10
9
9
10
12
10
10
9
8
8
5
2
4
4
4
4
4
3
8
3
1
2
4
3
1
1
1
2
4
2
-3
-3
-2
-2
0
-6
-6
-6
-2
-3
-6
-5
-6
-6
-8
-6
-7
-9
-11
-9
-8
-8
-11
-12
-12
-12
-12
-14
-13
-14
-14
-14
-15
-11
-11
-12
-9
-9
-9
-12
-13
-10
-11
-10
-10
-14
-8
-10
-10
-11
-12
-8
-10
-5
-8
-10
-4
-6
-4
-2
0
-2
-3
0
2
2
-3
0
4
6
4
4
5
5
4
3
-6
-6
-7
-6
-6
-7
-9
-6
-3
-2
-2
1
2
3
6
5
3
3
4
4
4
2
3
4
-1
2
5
6
7
10
11
14
16
10
-1
-19
-40
-66
-92
-97
-94
-80
-60
-33
-11
11
29
36
42
38
36
31
28
23
17
13
10
9
7
8
5
3
1
4
4
2
3
1
2
0
-5
0
0
-4
-5
-6
-7
-4
-9
-8
-9
-10
-8
-9
-6
-11
-12
-10
-12
-13
-15
-14
-10
-15
-16
-15
-17
-22
-22
-21
-25
-28
-27
-31
-32
-36
-37
-38
-37
-37
-34
-35
-33
-31
-32
-29
-26
-29
-23
-18
-13
-9
-10
-5
0
-3
0
2
3
9
12
13
14
14
14
12
11
7
9
9
10
7
3
7
6
5
8
5
5
3
4
3
4
3
5
3
6
8
5
7
6
6
2
-1
5
1
-2
2
4
-1
2
6
4
5
7
4
3
2
3
-2
1
-2
0
1
2
3
-2
2
-1
-4
0
1
1
-1
-1
2
1
0
0
0
-4
-5
-5
-8
-8
-8
-7
-7
-9
-6
-8
-10
-8
-13
-11
-8
-6
-8
-10
-9
-8
-9
-9
-6
-9
-7
-5
-9
-7
-11
-12
-13
-13
-13
-11
-14
-12
-8
-11
-9
-13
-12
-15
-13
-14
-15
-13
-19
-13
-12
-17
-12
-15
-14
-17
-16
-16
-15
-13
-16
-15
-18
-17
-17
-17
-16
-14
-14
-15
-16
-18
-14
-12
-11
-9
-11
-8
-11
-6
-6
-7
-7
-10
-6
-6
-6
-4
-2
1
2
6
0
0
-1
3
7
11
11
10
2
-17
-42
-68
-88
-102
-105
-96
-76
-48
-23
0
16
25
31
34
29
25
22
17
15
16
20
16
13
10
9
12
9
11
9
9
8
6
5
5
0
3
3
-2
-3
-1
0
-3
-2
-2
-5
-5
-4
-9
-8
-12
-12
-14
-15
-20
-18
-20
-21
-23
-28
-28
-27
-30
-33
-34
-37
-37
-36
-37
-39
-44
-46
-42
-42
-49
-44
-44
-42
-38
-40
-39
-37
-34
-28
-27
-23
-17
-16
-12
-8
-5
-1
4
6
3
7
8
11
12
12
13
11
14
13
14
11
11
9
10
3
5
5
3
1
5
4
6
3
2
5
2
6
4
3
5
8
7
8
7
7
7
6
12
10
9
7
10
8
9
10
14
10
12
13
9
7
12
10
7
8
10
3
1
5
3
5
5
8
8
1
3
6
1
2
3
4
-1
2
-1
1
-2
0
-3
-2
4
1
1
-2
-1
-3
-5
-4
-6
-7
-6
-7
-4
-6
-5
-5
-3
-5
-3
-4
-7
-11
-8
-7
-5
-8
-9
-8
-8
-8
-9
-8
-10
-10
-12
-12
-12
-11
-13
-8
-13
-11
-11
-8
-9
-10
-13
-9
-13
-11
-12
-15
-15
-14
-15
-15
-15
-14
-15
-15
-11
-15
-17
-16
-17
-15
-14
-15
-13
-9
-10
-12
-9
-9
-11
-8
-11
-9
-8
-9
-11
-12
-10
-13
-13
-12
-15
-10
-7
-3
-8
-17
-32
-56
-85
-98
-108
-106
-97
-74
-49
-23
-1
14
26
25
26
23
17
14
10
5
3
3
2
0
-2
-1
-2
-3
-1
-1
-3
-3
-4
-4
-6
-7
-7
-8
-9
-4
-6
-10
-6
-9
-8
-9
-7
-9
-9
-9
-8
-10
-8
-8
-12
-11
-10
-14
-15
-17
-15
-19
-19
-20
-19
-20
-24
-23
-29
-30
-34
-36
-36
-39
-38
-37
-37
-37
-34
-32
-31
-29
-26
-24
-21
-19
-14
-13
-8
-5
-1
4
6
8
7
13
14
15
16
11
14
11
14
12
10
9
13
12
11
11
13
12
13
12
8
7
7
10
9
7
7
5
6
2
4
3
3
6
3
3
5
6
6
3
2
4
4
4
3
2
2
2
1
-2
2
-4
3
4
4
4
4
5
5
3
5
6
6
5
1
4
1
-3
1
-3
-3
-9
-6
-7
-6
-7
-10
-4
-5
-6
-5
-5
-6
-4
-2
-5
-3
-6
-5
-7
-7
-6
-8
-6
-7
-7
-6
-6
-7
-5
-5
-5
-4
-5
-7
-6
-11
-11
-10
-12
-14
-15
-15
-14
-11
-12
-13
-11
-11
-11
-11
-8
-8
-9
-7
-7
-7
-5
-4
-9
-9
-6
-9
-6
-8
-9
-2
2
7
3
-6
-19
-42
-70
-89
-100
-102
-92
-73
-48
-28
-4
15
24
29
29
29
21
19
12
7
7
6
4
5
6
0
1
0
-2
-3
-3
-5
-9
-7
-9
-8
-6
-6
-7
-6
-9
-6
-7
-7
-12
-11
-11
-9
-12
-11
-10
-11
-9
-13
-12
-13
-17
-14
-17
-20
-20
-20
-25
-23
-28
-28
-29
-28
-31
-36
-35
-38
-36
-37
-40
-43
-41
-41
-40
-45
-41
-40
-35
-28
-27
-23
-15
-14
-8
-5
-4
2
3
3
3
6
9
10
7
11
10
12
12
11
10
13
11
10
9
12
14
12
14
11
12
10
10
10
11
12
11
7
7
9
9
5
8
7
5
2
6
4
7
4
4
-1
3
5
1
3
4
3
4
4
1
3
2
3
4
4
2
3
3
3
1
-3
-3
0
-1
-2
2
2
1
-3
-5
-2
1
-3
-4
-3
-3
1
2
4
-1
3
2
4
2
1
0
-1
1
-4
-6
-5
-6
-6
-1
-3
0
-2
1
0
0
-3
-1
2
0
-2
2
1
0
-2
-2
-3
-3
-4
-2
-5
-6
-5
-4
-4
-6
-6
-4
-5
-4
-7
-4
-8
-7
-12
-12
-10
-10
-13
-13
-12
-14
-17
-12
-11
-13
-12
-12
-12
-13
-10
-12
-8
-7
-9
-8
-10
-6
-6
-9
-10
-9
-6
-7
-4
3
2
-5
-19
-41
-68
-89
-105
-106
-96
-84
-60
-36
-13
6
14
24
25
21
20
15
8
2
2
0
-4
-5
-9
-9
-8
-9
-13
-13
-15
-13
-16
-17
-18
-16
-17
-16
-17
-20
-19
-20
-21
-22
-20
-16
-20
-18
-20
-20
-20
-21
-20
-21
-21
-21
-22
-22
-24
-21
-21
-24
-27
-29
-29
-32
-34
-35
-37
-38
-41
-39
-39
-37
-39
-38
-39
-41
-39
-37
-34
-32
-29
-28
-25
-18
-16
-13
-10
-4
-5
2
7
5
12
11
13
14
12
12
12
14
13
12
12
11
13
12
10
11
10
9
5
3
4
6
-1
-2
-5
-2
0
3
-1
3
4
4
2
1
1
4
3
1
2
2
3
-3
4
2
1
-5
-2
-2
-5
0
-2
0
-2
-4
-2
-5
-5
-3
-6
-2
1
1
1
1
-5
-1
-3
-2
1
0
0
-4
0
-5
-5
0
2
-1
-2
-3
0
0
-2
0
1
4
3
6
3
3
2
8
4
2
-1
2
3
-1
-1
-1
3
2
1
3
0
1
0
3
-2
1
-1
3
2
0
-2
4
0
2
-2
0
-3
-3
-1
-4
-4
-5
-4
-3
0
-4
-5
-6
-6
-7
-8
-6
-11
-10
-9
-9
-9
-9
-9
-5
-3
-2
2
1
3
0
3
2
2
0
-2
-2
0
-2
-5
-3
-2
-2
-1
4
12
10
4
-8
-32
-56
-81
-97
-104
-100
-84
-61
-32
-6
15
28
35
40
37
31
27
24
21
16
12
13
11
9
9
8
8
8
7
7
6
7
9
10
11
7
8
8
8
5
4
1
-3
-4
0
0
-5
-3
-3
-5
-6
-5
-3
-3
-7
-8
-9
-12
-15
-14
-20
-25
-27
-27
-25
-26
-30
-26
-30
-32
-34
-34
-34
-31
-33
-34
-31
-29
-27
-23
-24
-19
-18
-14
-10
-4
-5
2
5
7
12
14
16
16
15
18
17
16
19
18
18
18
16
16
14
14
15
14
13
12
11
11
10
12
11
10
10
13
13
11
13
12
11
15
15
13
8
12
12
13
12
10
10
13
12
12
9
11
7
5
8
6
7
5
6
6
8
5
8
5
3
1
2
4
2
0
-2
-1
1
-3
-3
-1
2
4
6
3
4
6
8
10
8
8
7
7
9
12
14
12
11
15
12
16
15
17
17
24
32
35
38
43
46
53
61
68
74
77
82
88
92
96
97
98
101
103
103
101
96
96
94
93
93
93
96
97
96
95
96
91
88
88
84
82
80
77
78
76
72
69
69
65
62
54
49
44
41
36
30
25
23
20
17
11
13
11
8
4
3
2
3
-3
-7
-9
-13
-14
-18
-19
-19
-18
-14
-17
-17
-14
-16
-20
-20
-23
-21
-22
-19
-20
-20
-24
-36
-54
-74
-100
-118
-132
-133
-122
-106
-84
-63
-44
-30
-29
-29
-26
-36
-42
-47
-55
-55
-57
-58
-59
-60
-60
-62
-62
-67
-66
-68
-68
-69
-69
-70
-68
-70
-72
-71
-67
-71
-71
-71
-77
-78
-79
-80
-81
-81
-80
-76
-75
-76
-74
-77
-72
-75
-75
-77
-77
-77
-76
-77
-80
-80
-83
-82
-87
-85
-89
-87
-87
-88
-89
-90
-89
-89
-88
-89
-89
-87
-80
-80
-76
-70
-66
-61
-54
-52
-48
-44
-43
-37
-36
-34
-33
-28
-25
-25
-24
-28
-24
-26
-24
-23
-26
-20
-25
-24
-24
-26
-23
-22
-24
-23
-21
-22
-20
-22
-24
-24
-24
-22
-20
-22
-23
-21
-22
-19
-20
-18
-18
-17
-16
-19
-16
-18
-17
-22
-17
-16
-16
-17
-15
-13
-13
-9
-9
-11
-9
-11
-7
-7
-11
-10
-11
-11
-9
-10
-8
-9
-10
-8
-11
-11
-12
-15
-16
-16
-14
-13
-11
-13
-10
-10
-10
-11
-12
-8
-8
-9
-9
-8
-13
-11
-7
-6
-10
-8
-12
-11
-11
-9
-10
-13
-11
-9
-10
-9
-8
-9
-9
-9
-13
-13
-14
-12
-12
-10
-11
-7
-9
-7
-6
-6
-7
-9
-11
-11
-13
-12
-17
-12
-11
-10
-9
-6
-6
-7
-5
-6
-6
-4
-8
-8
-9
-8
-5
-4
-5
-6
-9
-9
-9
-12
-11
-9
-7
-6
-5
-5
-1
-3
-2
-5
-2
0
4
1
2
1
4
1
6
5
6
8
10
5
8
9
11
10
0
-15
-32
-59
-86
-107
-124
-121
-111
-92
-72
-44
-26
-7
-1
-2
-3
-5
-9
-17
-18
-22
-23
-23
-21
-24
-21
-23
-23
-23
-20
-20
-17
-19
-19
-15
-17
-12
-11
-12
-13
-13
-13
-13
-15
-13
-13
-13
-13
-12
-14
-14
-17
-16
-15
-17
-17
-21
-20
-20
-22
-23
-22
-24
-24
-28
-25
-28
-30
-31
-35
-39
-31
-41
-38
-38
-39
-38
-39
-36
-34
-33
-29
-25
-21
-18
-15
-10
-7
1
-3
0
8
13
13
15
15
16
20
15
17
18
19
18
19
21
21
21
20
22
19
24
22
22
21
22
22
20
22
15
20
20
19
20
23
19
21
21
21
19
20
22
21
23
21
19
19
20
21
21
23
22
24
25
23
24
22
26
28
25
26
22
24
24
25
27
28
26
25
25
26
26
22
24
21
24
21
18
19
20
20
20
19
18
23
19
21
20
18
21
22
24
19
21
18
15
11
14
10
13
13
9
8
11
12
14
11
9
16
9
10
9
11
11
7
8
4
5
1
4
-1
2
1
2
1
-4
0
-1
-1
-2
-2
-3
-5
-5
-5
-3
-6
-5
0
-3
0
-2
-2
-1
2
3
2
-2
4
0
-5
-4
-4
-4
-8
-8
-8
-9
-10
-10
-13
-16
-11
-11
-13
-14
-16
-12
-12
-11
-10
-8
-10
-8
-10
-9
-6
-4
-4
-5
-5
-3
-5
-3
-6
-4
-5
-5
-5
3
5
8
1
-11
-31
-59
-85
-105
-116
-113
-101
-78
-47
-24
-2
12
20
25
25
21
17
14
9
16
20
20
20
23
26
27
26
27
28
32
30
30
29
23
28
26
27
23
27
28
25
21
19
24
24
22
22
23
23
20
16
14
13
10
8
8
4
1
-2
-3
-3
-5
-9
-13
-12
-14
-15
-17
-20
-20
-22
-26
-28
-28
-26
-28
-27
-25
-23
-22
-17
-14
-15
-12
-8
-5
-5
5
6
12
12
15
15
18
19
18
20
19
19
22
19
20
17
16
15
14
13
11
7
12
13
12
13
12
8
11
8
10
8
8
5
7
5
6
6
5
6
4
1
-1
-9
-10
-16
-20
-24
-24
-25
-26
-25
-23
-22
-17
-11
-7
0
3
3
2
4
5
2
-1
2
-2
-1
0
-4
-7
-8
-9
-7
-10
-6
-10
-8
-10
-8
-9
-6
-9
-5
-6
-8
-6
-8
-8
-11
-8
-11
-13
-9
-11
-8
-10
-7
-7
-9
-10
-10
-11
-10
-9
-11
-10
-8
-8
-13
-10
-10
-10
-8
-11
-11
-14
-11
-14
-14
-15
-17
-15
-13
-14
-17
-17
-15
-18
-18
-17
-16
-15
-16
-16
-16
-15
-12
-10
-11
-12
-12
-13
-13
-16
-18
-20
-15
-17
-17
-18
-13
-14
-16
-19
-22
-17
-19
-21
-19
-21
-18
-16
-14
-16
-13
-9
-9
-6
-9
-8
-8
-9
-8
-8
-10
-15
-13
-16
-17
-14
-13
-12
-7
-5
-8
-17
-31
-55
-81
-99
-113
-111
-105
-86
-65
-37
-15
4
16
18
21
18
12
7
5
0
0
1
-6
-4
-5
-7
-8
-10
-11
-11
-13
-11
-10
-11
-13
-10
-7
-8
-11
-10
-9
-12
-11
-14
-12
-10
-10
-13
-14
-15
-12
-14
-14
-16
-16
-16
-18
-19
-24
-21
-25
-25
-28
-27
-29
-33
-35
-37
-39
-39
-38
-36
-32
-37
-39
-40
-37
-38
-37
-38
-34
-30
-30
-29
-24
-21
-16
-13
-7
-7
-5
1
4
4
9
8
14
12
10
14
16
13
10
11
13
13
16
14
15
17
14
16
11
14
13
11
12
11
8
7
9
12
8
10
11
12
10
11
9
9
8
8
7
7
8
7
7
8
8
7
3
5
8
7
9
7
10
9
11
11
11
10
10
6
10
6
8
6
1
3
3
3
5
5
5
8
8
8
9
10
6
5
7
3
1
6
5
1
3
1
1
-1
-2
1
-2
0
-3
-4
0
-5
4
-3
-1
0
0
1
2
-1
-4
-2
-4
-1
-5
-6
-5
-7
-6
-5
0
-3
1
2
0
0
0
-2
-1
0
-5
-2
-5
-4
-4
-9
-8
-8
-8
-11
-12
-15
-13
-14
-9
-11
-8
-12
-9
-14
-12
-10
-6
-9
-8
-12
-8
-11
-12
-11
-13
-13
-14
-16
-12
-14
-16
-15
-16
-17
-18
-13
-12
-10
-13
-9
-7
-8
-8
-9
-11
-12
-8
-15
-13
-13
-17
-10
-11
-10
-8
-10
-7
-5
1
1
-9
-15
-35
-56
-80
-99
-103
-103
-91
-69
-43
-18
3
16
24
27
28
23
20
18
14
14
10
7
3
2
2
0
-2
-6
-9
-6
-6
-8
-12
-11
-9
-7
-5
-5
-7
-6
-4
-8
-7
-6
-10
-9
-9
-10
-12
-14
-12
-15
-15
-14
-15
-18
-19
-23
-23
-22
-23
-25
-27
-27
-24
-29
-31
-31
-31
-36
-37
-41
-38
-36
-35
-34
-37
-33
-33
-30
-29
-31
-24
-20
-17
-13
-11
-9
-5
-2
1
1
6
8
11
11
15
13
13
14
13
13
15
13
12
11
11
11
12
14
14
10
10
9
14
10
13
9
12
11
8
7
8
5
6
8
6
3
6
7
8
7
8
6
7
8
9
8
7
7
12
9
9
8
8
6
6
6
8
7
7
5
10
10
9
11
8
8
5
9
8
6
6
6
6
9
6
5
4
5
6
1
-1
0
0
1
-2
-3
-2
1
-3
1
-4
-2
-2
-4
-4
-4
-3
-5
0
-4
-6
-4
-3
-3
-6
-5
-4
-2
0
0
-1
2
3
-2
-2
-3
0
-4
-2
-2
-2
0
-3
-2
1
-2
0
-7
-2
-5
-5
-6
-5
-4
-4
-5
-7
-6
-7
-7
-7
-9
-8
-10
-9
-13
-8
-9
-8
-9
-8
-11
-7
-9
-7
-12
-10
-10
-12
-13
-13
-10
-12
-14
-13
-10
-17
-12
-15
-14
-12
-11
-10
-11
-7
-11
-9
-9
-8
-8
-10
-10
-9
-9
-10
-10
-9
-11
-11
-12
-13
-10
-4
0
-2
-12
-28
-50
-77
-95
-107
-107
-93
-73
-49
-22
-3
19
26
29
28
26
22
13
8
1
2
-5
-2
-6
-4
-7
-4
-5
-7
-8
-8
-11
-7
-8
-10
-14
-8
-11
-11
-12
-12
-11
-12
-13
-13
-10
-12
-15
-16
-19
-16
-19
-21
-23
-22
-27
-26
-28
-26
-28
-28
-31
-27
-33
-37
-39
-43
-42
-43
-48
-47
-45
-46
-40
-40
-36
-39
-42
-44
-41
-40
-34
-35
-32
-30
-29
-23
-23
-18
-17
-14
-10
-11
-9
-13
-7
-2
-4
0
-2
-3
1
0
-8
-10
-13
-14
-19
-19
-22
-23
-23
-24
-25
-26
-25
-25
-23
-23
-23
-21
-22
-19
-20
-22
-20
-21
-21
-21
-20
-21
-20
-17
-17
-14
-12
-6
0
3
5
10
12
16
21
19
20
23
26
24
26
20
17
18
15
14
16
13
12
11
7
9
14
12
9
10
10
9
9
12
14
16
17
18
15
18
18
23
21
20
19
21
19
21
21
20
21
22
24
24
28
26
26
27
23
24
22
25
25
24
24
26
26
27
28
24
24
22
22
23
18
10
9
8
6
2
5
3
-5
-7
-12
-14
-13
-14
-18
-19
-16
-19
-16
-23
-25
-28
-25
-29
-33
-31
-33
-33
-35
-33
-35
-34
-35
-36
-39
-42
-41
-37
-39
-37
-37
-33
-29
-30
-26
-24
-21
-17
-20
-17
-19
-19
-19
-17
-16
-16
-18
-15
-15
-16
-14
-10
-2
-8
-17
-36
-64
-87
-107
-114
-110
-101
-76
-47
-24
4
19
31
40
36
33
31
30
28
27
27
25
25
23
26
20
23
24
23
20
24
21
17
18
12
11
4
4
3
3
2
1
3
1
4
2
0
-4
-2
-2
-2
0
-2
-4
-2
-4
-5
-10
-13
-11
-12
-15
-19
-23
-22
-24
-30
-32
-36
-43
-44
-44
-40
-41
-41
-45
-42
-41
-41
-39
-38
-37
-30
-31
-24
-19
-17
-9
-7
-2
0
5
9
13
15
19
20
20
23
24
29
30
32
37
37
36
36
37
36
34
29
30
22
23
22
24
20
22
21
22
19
19
23
18
19
17
19
19
17
22
20
17
16
13
15
11
14
13
14
12
9
9
8
7
5
7
5
3
9
9
6
7
8
8
9
6
3
6
5
4
4
4
6
1
4
-1
1
3
-4
-3
-5
-2
0
-2
-4
-5
0
-4
-3
-2
-4
-6
-6
-8
-6
-9
-10
-9
-12
-10
-14
-11
-10
-12
-8
-10
-10
-8
-10
-9
-11
-12
-10
-13
-10
-10
-8
-10
-9
-10
-11
-7
-12
-12
-11
-17
-17
-17
-11
-14
-15
-15
-12
-15
-11
-14
-15
-14
-8
-10
-12
-12
-13
-12
-12
-14
-12
-17
-21
-23
-22
-22
-21
-19
-21
-22
-16
-15
-16
-17
-19
-18
-16
-17
-15
-18
-15
-14
-15
-19
-17
-11
-17
-16
-17
-14
-13
-9
-6
-11
-18
-35
-56
-82
-96
-105
-99
-88
-66
-42
-21
-4
11
18
18
18
15
12
6
3
-3
-5
-8
-7
-6
-11
-8
-12
-14
-14
-13
-14
-14
-18
-15
-19
-15
-16
-18
-16
-18
-18
-20
-23
-23
-21
-23
-25
-21
-24
-20
-20
-22
-21
-22
-21
-20
-19
-23
-23
-27
-32
-29
-31
-36
-38
-38
-38
-42
-44
-49
-51
-50
-51
-54
-51
-53
-53
-47
-43
-40
-38
-37
-31
-29
-29
-25
-20
-17
-13
-9
-6
0
0
0
1
3
8
8
11
12
12
14
12
12
8
11
8
9
9
5
5
10
8
8
5
5
5
8
7
2
4
6
5
5
3
5
5
5
5
6
8
6
8
6
6
6
5
6
4
2
3
0
6
-1
3
3
5
4
2
4
1
-1
0
0
0
2
0
1
-4
-4
0
0
-3
0
0
-2
-2
-3
-4
-3
-4
2
-3
0
-4
-2
-5
-3
-4
-6
-10
-9
-8
-8
-10
-9
-10
-7
-6
-9
-9
-5
-7
-9
-10
-10
-11
-10
-9
-12
-12
-8
-12
-12
-12
-12
-11
-11
-8
-11
-15
-11
-10
-11
-11
-11
-7
-13
-8
-12
-9
-12
-11
-13
-9
-12
-11
-11
-10
-10
-13
-12
-13
-14
-17
-18
-14
-17
-16
-21
-21
-17
-14
-13
-12
-9
-6
-5
-4
-5
-2
1
-5
-4
-2
-2
-2
0
1
4
6
5
7
10
15
18
19
14
-3
-26
-55
-77
-89
-94
-85
-68
-42
-15
8
23
37
40
41
41
35
25
23
21
20
15
11
13
7
10
9
6
6
5
7
8
6
6
7
8
5
4
6
6
2
6
8
6
9
5
1
6
5
4
4
4
-2
-5
-3
-3
-4
-7
-10
-10
-11
-12
-16
-18
-21
-21
-24
-25
-26
-32
-33
-39
-40
-40
-39
-40
-39
-41
-34
-33
-34
-30
-24
-22
-20
-17
-13
-8
-1
2
8
9
11
16
18
16
22
19
21
22
19
22
20
22
17
24
18
17
21
21
17
17
15
17
18
15
21
25
28
34
35
40
42
44
48
51
52
54
57
57
60
59
59
61
61
63
62
60
57
56
62
59
57
57
53
52
50
50
47
46
46
44
42
43
41
40
38
39
41
36
38
33
31
30
26
27
23
21
21
21
17
17
17
16
15
14
15
15
18
16
17
16
18
20
18
18
15
17
15
15
17
14
15
12
11
12
9
10
11
10
8
8
9
10
9
7
8
6
4
8
9
5
7
6
6
7
7
8
8
12
13
11
14
12
9
11
10
10
9
10
8
6
8
10
10
8
8
7
7
8
7
8
5
7
3
-3
-3
-7
-8
-8
-10
-3
2
-1
5
7
8
8
11
13
10
13
13
13
12
13
16
13
14
15
16
14
16
14
17
18
19
18
9
-10
-31
-58
-81
-93
-98
-89
-66
-47
-24
1
15
20
24
23
28
18
13
6
4
1
-7
-11
-8
-14
-14
-17
-21
-25
-26
-24
-24
-22
-28
-26
-28
-29
-31
-31
-31
-32
-33
-31
-34
-31
-35
-34
-36
-38
-39
-41
-44
-45
-46
-45
-48
-49
-50
-51
-50
-51
-54
-56
-59
-59
-59
-63
-65
-67
-72
-72
-72
-72
-72
-75
-72
-72
-72
-68
-65
-66
-55
-57
-51
-45
-44
-41
-36
-33
-31
-29
-29
-23
-21
-17
-19
-15
-14
-16
-18
-18
-17
-20
-17
-16
-18
-14
-18
-18
-19
-17
-15
-19
-21
-20
-20
-24
-23
-23
-19
-18
-21
-20
-20
-19
-18
-23
-26
-22
-24
-25
-27
-28
-27
-27
-27
-26
-29
-26
-27
-27
-25
-29
-28
-28
-32
-34
-33
-30
-30
-30
-29
-28
-31
-31
-29
-32
-28
-28
-30
-31
-30
-30
-35
-37
-34
-36
-38
-35
-34
-33
-35
-37
-33
-28
-31
-29
-29
-32
-33
-34
-33
-33
-33
-35
-37
-36
-37
-35
-36
-34
-36
-34
-36
-38
-39
-39
-38
-42
-41
-38
-40
-41
-38
-39
-38
-35
-36
-34
-34
-32
-33
-31
-27
-31
-28
-29
-32
-33
-29
-31
-32
-30
-31
-31
-27
-27
-27
-27
-28
-29
-31
-28
-29
-29
-27
-28
-29
-30
-28
-29
-28
-29
-30
-29
-30
-30
-28
-31
-34
-33
-33
-29
-28
-24
-20
-24
-18
-17
-17
-15
-14
-14
-17
-12
-18
-15
-19
-16
-13
-16
-15
-16
-19
-18
-14
-9
-6
-13
-24
-43
-73
-100
-111
-119
-116
-103
-78
-46
-20
3
14
19
23
28
24
17
16
11
9
9
7
7
6
2
2
2
-2
1
2
4
6
7
5
10
8
3
4
1
1
0
2
0
-2
-1
-3
-3
0
-3
-4
-4
-3
-6
-4
-3
-4
-10
-11
-10
-12
-13
-19
-19
-22
-24
-28
-32
-32
-33
-34
-35
-36
-36
-39
-42
-42
-41
-39
-39
-39
-37
-35
-33
-26
-21
-19
-15
-11
-7
-4
6
7
11
10
14
15
20
18
18
25
23
22
21
22
22
24
26
22
25
21
22
20
14
14
15
17
14
18
14
12
9
9
8
10
9
8
8
10
11
9
11
16
12
13
11
16
15
12
12
11
16
16
12
9
9
12
10
6
8
9
10
8
9
11
9
10
8
6
8
6
7
10
7
8
6
9
7
6
6
2
-1
3
-5
-2
-2
1
-2
-1
2
3
3
1
0
-2
2
6
3
4
3
3
3
7
6
5
4
4
5
4
3
4
8
4
6
2
0
2
4
0
6
4
4
5
5
3
7
1
3
1
2
5
4
6
3
4
5
7
4
5
5
2
3
3
3
4
6
5
6
5
3
7
5
5
1
-2
-2
-1
-2
1
3
0
3
1
2
5
3
6
3
5
8
6
3
6
9
11
10
9
9
15
17
18
7
-5
-28
-52
-80
-92
-99
-95
-79
-50
-21
0
19
35
40
42
40
36
30
24
19
20
15
15
15
14
13
13
12
11
13
8
9
8
5
9
10
9
7
7
6
6
5
4
1
3
2
3
3
4
4
1
-2
-5
-2
-5
-9
-7
-9
-10
-10
-12
-15
-15
-20
-20
-24
-22
-26
-29
-27
-28
-28
-33
-30
-31
-32
-34
-35
-34
-31
-31
-30
-28
-25
-19
-17
-13
-9
-6
-3
-2
-1
-1
3
-1
2
5
6
3
5
6
4
7
10
6
7
6
8
7
9
5
3
1
5
8
4
1
4
4
4
1
2
0
-5
1
1
-1
-1
5
6
5
8
13
13
18
20
19
18
17
21
22
20
24
23
22
25
23
21
23
19
22
23
21
19
22
21
19
19
19
17
15
15
13
15
18
15
11
13
11
15
11
8
10
7
6
3
6
3
2
-1
1
1
2
1
3
4
0
3
1
1
0
-7
-6
0
-6
-2
-4
-6
-5
-10
-7
-10
-9
-8
-10
-9
-7
-10
-7
-4
-5
-5
-6
0
-5
-6
-7
-8
-7
-7
-5
-9
-8
-8
-9
-8
-14
-10
-11
-13
-10
-17
-13
-15
-22
-25
-28
-31
-34
-37
-41
-40
-40
-39
-40
-37
-35
-30
-31
-28
-25
-27
-25
-25
-22
-27
-23
-22
-22
-23
-23
-21
-18
-16
-17
-11
-7
-3
-6
-12
-33
-55
-84
-100
-109
-108
-101
-72
-46
-23
3
15
25
29
26
26
17
16
17
15
19
19
20
22
23
26
23
23
24
23
22
19
18
15
20
24
20
19
20
25
19
20
20
18
16
15
17
17
18
18
19
18
18
17
16
15
16
16
13
10
7
1
5
-2
-6
-8
-13
-11
-14
-16
-19
-16
-19
-20
-20
-21
-22
-21
-25
-22
-21
-18
-17
-12
-10
-9
-4
-2
1
4
9
11
13
16
16
16
16
17
18
24
19
18
16
15
18
16
13
16
16
15
13
16
16
15
13
11
11
9
11
13
9
12
11
11
10
9
5
7
9
6
4
2
1
-1
-1
-3
-4
-3
3
1
4
3
3
2
-1
2
-1
-2
-1
-5
-5
0
-3
-4
-7
-7
-7
-9
-10
-7
-7
-6
-10
-8
-7
-9
-6
-9
-11
-11
-8
-8
-12
-13
-15
-12
-15
-17
-15
-16
-18
-18
-20
-18
-17
-18
-18
-17
-18
-14
-14
-18
-16
-17
-15
-17
-16
-15
-12
-13
-17
-16
-22
-26
-30
-30
-29
-28
-29
-29
-27
-26
-22
-19
-14
-15
-14
-18
-15
-12
-11
-7
-8
-8
-10
-13
-8
-16
-11
-15
-13
-18
-18
-22
-17
-17
-17
-18
-15
-15
-16
-18
-20
-22
-24
-25
-26
-27
-26
-23
-22
-23
-21
-19
-15
-13
-18
-16
-18
-17
-15
-14
-17
-13
-14
-11
-10
-8
-9
-9
-4
-1
3
-2
-10
-25
-46
-72
-93
-106
-111
-112
-94
-71
-44
-18
0
13
17
19
20
13
5
1
-2
-6
-8
-13
-9
-8
-15
-13
-12
-14
-17
-17
-20
-23
-22
-25
-27
-28
-34
-33
-32
-34
-31
-33
-32
-33
-31
-38
-37
-36
-36
-36
-38
-35
-39
-39
-40
-42
-41
-43
-44
-43
-46
-44
-46
-45
-46
-47
-51
-48
-52
-55
-54
-52
-54
-52
-54
-56
-53
-50
-52
-50
-46
-42
-38
-37
-35
-30
-25
-24
-18
-19
-12
-14
-8
-5
-5
-2
-3
-3
0
1
5
2
5
7
2
4
5
8
6
6
10
6
9
13
12
12
10
12
13
15
18
21
23
23
22
15
11
7
6
7
7
12
17
18
21
21
21
24
23
23
24
22
17
17
15
13
11
12
10
11
8
5
10
7
8
8
5
5
3
2
6
4
3
2
2
4
1
5
2
5
4
2
3
3
2
1
3
3
5
5
2
4
6
4
8
3
6
8
10
5
4
5
4
3
-3
-7
-4
-7
-5
-2
-5
0
-2
-3
-2
-5
-3
-3
-2
-3
-2
-1
0
3
1
4
-1
0
-4
-3
-6
-5
-5
-6
-4
-5
-4
-2
-3
1
-3
-8
-7
-8
-11
-15
-15
-17
-12
-14
-15
-16
-15
-14
-13
-8
-8
-4
-5
-5
-4
-9
-5
-9
-6
-7
-8
-10
-10
-12
-12
-10
-14
-12
-9
-6
-2
-4
-7
-19
-41
-61
-88
-104
-110
-107
-91
-71
-45
-16
2
17
26
30
30
25
22
15
12
8
10
4
2
3
2
4
2
3
0
-3
-1
-2
-4
-3
-5
-6
-4
-9
-7
-7
-6
-7
-5
-7
-5
-3
-4
-5
-4
-6
-6
-10
-8
-11
-10
-12
-16
-17
-19
-18
-22
-22
-25
-25
-26
-28
-31
-32
-35
-34
-37
-38
-39
-39
-42
-39
-44
-40
-39
-36
-36
-33
-28
-24
-20
-17
-12
-9
-4
-2
-3
1
4
8
10
10
11
12
13
14
12
11
12
15
16
18
18
19
18
19
17
18
18
17
16
18
15
11
16
15
13
12
14
12
14
13
11
9
10
11
7
8
9
9
9
6
6
8
8
6
6
8
9
7
4
8
10
8
6
5
6
3
3
6
1
6
5
6
7
3
6
6
8
6
8
5
6
8
10
7
4
3
4
4
6
8
10
10
10
8
10
7
10
5
9
7
6
5
5
3
4
1
-1
0
2
-5
0
-3
1
-1
-1
-3
-4
-2
-3
-7
-4
-3
-1
0
0
-5
-6
-6
-8
-11
-15
-12
-15
-12
-11
-9
-11
-7
-6
-7
-5
-8
-5
-8
-7
-10
-10
-10
-6
-10
-10
-9
-6
-7
-8
-7
-6
1
2
-5
-16
-38
-61
-83
-101
-109
-107
-90
-65
-39
-13
7
18
29
32
31
28
24
18
15
10
8
8
7
8
6
8
7
3
2
-1
1
2
2
1
2
-1
1
1
1
1
-2
1
1
0
-4
-3
-7
-5
-4
-7
0
-4
-2
-3
-2
-5
-5
-5
-8
-9
-7
-6
-8
-11
-12
-13
-12
-13
-17
-17
-21
-20
-20
-24
-24
-24
-24
-22
-23
-23
-20
-16
-18
-14
-10
-4
3
6
10
13
14
20
17
20
21
21
20
19
20
19
20
16
18
16
15
14
16
16
14
12
10
12
13
11
9
12
10
6
5
4
3
5
8
5
6
6
5
4
4
-1
-2
1
-2
-1
-1
1
4
1
1
2
1
-1
-2
1
1
1
1
1
0
0
-3
1
-4
-4
-7
-10
-8
-9
-9
-12
-14
-11
-12
-11
-10
-10
-9
-9
-3
-7
-2
-6
-6
-6
-10
-9
-9
-12
-11
-14
-11
-9
-9
-4
-9
-4
-4
-7
-9
-11
-5
-9
-9
-11
-10
-11
-14
-18
-19
-23
-27
-29
-29
-30
-31
-32
-30
-27
-27
-24
-27
-21
-19
-18
-17
-17
-13
-13
-16
-14
-12
-13
-10
-10
-13
-12
-11
-10
-5
-5
-2
-8
-17
-33
-57
-83
-102
-106
-105
-93
-73
-45
-20
0
12
19
19
19
17
11
8
6
3
-1
-1
-2
0
0
-1
0
-3
-3
-4
-7
-4
-4
-8
-11
-10
-12
-8
-14
-11
-16
-13
-15
-14
-14
-12
-15
-14
-14
-11
-13
-13
-14
-14
-12
-14
-15
-16
-21
-22
-24
-25
-27
-28
-31
-32
-36
-37
-37
-35
-36
-37
-39
-36
-38
-37
-36
-35
-31
-30
-24
-25
-20
-21
-16
-13
-14
-10
-9
-9
-2
2
3
9
8
12
11
10
9
10
11
9
6
10
10
8
8
6
5
6
2
2
5
3
5
1
1
-1
2
1
0
-2
-1
3
4
5
4
4
7
9
8
6
8
8
7
10
8
6
5
6
6
7
6
6
3
5
2
6
3
1
3
0
4
3
1
-2
1
1
4
0
-3
-4
-2
-2
0
0
-1
3
1
4
2
3
2
0
4
2
2
1
3
2
3
5
3
6
8
3
7
6
7
6
5
3
4
1
5
4
1
-5
-4
-6
-5
-7
-5
-8
-8
-9
-9
-11
-11
-13
-11
-17
-16
-17
-19
-18
-19
-20
-20
-21
-23
-22
-19
-18
-14
-17
-14
-12
-11
-8
-13
-12
-9
-7
-6
-12
-8
-11
-11
-8
-10
-11
-8
-11
-11
-9
-8
-8
2
2
-6
-17
-36
-58
-82
-95
-103
-96
-80
-55
-33
-8
10
22
24
29
24
21
16
9
5
2
-1
1
0
-6
-6
-8
-12
-13
-14
-14
-15
-15
-13
-12
-11
-9
-7
-10
-11
-15
-13
-13
-14
-13
-18
-20
-20
-19
-16
-18
-21
-22
-24
-23
-26
-26
-28
-27
-26
-28
-29
-32
-33
-35
-38
-40
-41
-40
-44
-44
-45
-43
-46
-44
-47
-45
-42
-45
-44
-43
-42
-36
-38
-32
-29
-23
-22
-13
-13
-11
-5
4
8
12
11
12
11
16
12
12
13
12
15
13
11
11
12
11
13
14
13
14
14
13
14
14
15
14
14
11
11
11
13
13
10
9
11
11
12
13
11
10
12
8
10
11
11
12
9
11
14
15
22
19
20
19
15
18
16
15
16
19
15
14
14
13
12
16
12
10
10
8
7
7
8
6
10
10
7
6
3
6
6
8
10
6
8
8
8
7
11
7
9
11
8
10
12
11
11
11
11
12
6
4
0
1
0
5
1
0
-1
2
1
-4
-2
-2
-2
0
-2
-3
-5
-5
3
0
0
-3
0
-3
-4
-6
-9
-13
-9
-8
-11
-13
-14
-15
-13
-14
-15
-12
-12
-11
-10
-5
-5
-2
-4
-4
-3
-3
-4
-2
-3
0
-2
-1
-1
-2
-3
-4
-4
-4
-4
-2
2
8
2
-11
-28
-53
-76
-89
-98
-96
-83
-62
-36
-11
5
23
30
33
32
31
24
18
9
7
6
2
3
3
-1
0
1
-1
-3
-7
-10
-7
-8
-12
-17
-16
-15
-18
-16
-16
-17
-17
-17
-18
-20
-21
-17
-20
-20
-19
-19
-19
-16
-21
-21
-20
-22
-21
-20
-20
-22
-24
-21
-25
-24
-28
-29
-33
-33
-38
-39
-40
-41
-39
-40
-39
-42
-41
-39
-35
-38
-33
-32
-29
-31
-25
-21
-19
-15
-13
-8
-5
-2
0
-1
3
8
7
7
7
8
5
8
8
5
7
7
3
9
5
7
10
5
5
1
5
2
4
2
-1
2
4
5
5
5
8
9
5
4
5
6
5
4
3
5
3
6
3
1
-3
0
0
0
-1
0
0
1
2
-2
-4
-2
2
-2
2
2
-1
2
2
-5
-4
-4
-5
-2
4
1
3
2
2
-1
-2
-5
-4
-5
-4
-6
-5
-5
-6
-7
-7
-6
-5
-5
-1
0
-2
-4
0
0
-4
-4
-5
-5
-5
-3
-2
-4
-5
-7
-9
-7
-5
-7
-10
-7
-10
-9
-9
-8
-6
-9
-10
-3
-5
-6
-6
-8
-10
-7
-7
-4
-5
-4
-7
-5
0
-4
-5
-6
-4
-5
-6
-9
-11
-8
-7
-10
-7
-9
-12
-11
-12
-9
-8
-7
-4
-3
-6
-4
-8
-8
-3
-4
-6
-6
-7
-6
-4
-6
-7
-7
-3
-5
-5
-3
0
3
10
6
3
-11
-28
-52
-76
-90
-96
-94
-80
-56
-33
-12
9
20
30
31
27
28
21
17
11
7
4
3
1
0
-3
-3
-4
-3
-8
-8
-9
-9
-9
-9
-6
-5
-6
-9
-10
-10
-6
-6
-10
-7
-7
-7
-5
-8
-11
-9
-13
-13
-13
-16
-19
-19
-21
-22
-20
-23
-23
-24
-29
-30
-31
-36
-36
-37
-40
-40
-43
-43
-42
-46
-47
-47
-44
-46
-44
-41
-34
-35
-31
-29
-27
-23
-19
-16
-16
-8
-7
-6
-4
0
1
4
7
8
7
11
9
12
10
8
8
10
8
3
3
4
2
5
5
-1
-1
-1
1
4
4
3
6
4
5
7
6
8
8
7
5
3
5
2
3
6
9
8
5
8
7
6
5
8
7
5
1
5
4
4
4
3
7
8
8
6
5
4
4
1
1
3
2
2
-1
0
-4
-2
-3
-5
-5
-4
-5
-7
-3
-2
-4
-8
-9
-9
-10
-10
-9
-9
-9
-10
-8
-7
-7
-5
-8
-9
-7
-8
-6
-7
-5
-5
-5
-5
-7
-7
-4
-6
-7
-5
-6
-5
-3
-5
-6
-9
-5
-5
-5
0
-4
-4
0
-5
-5
-6
-4
-5
-5
-6
-4
-8
-4
-7
-6
-5
-6
-7
-7
-9
-8
-9
-9
-11
-10
-7
-6
-5
-4
-4
-3
2
1
2
4
4
4
1
0
1
-3
-5
-5
-3
-4
-5
-4
-4
-2
1
8
4
-8
-31
-55
-85
-101
-111
-106
-92
-68
-45
-14
2
19
27
28
30
25
22
13
11
11
8
7
8
7
5
6
3
-3
-2
1
4
-1
-3
-6
-5
-8
-8
-7
-13
-8
-8
-10
-10
-9
-12
-11
-9
-13
-15
-14
-14
-16
-15
-16
-16
-16
-21
-21
-23
-24
-22
-26
-26
-26
-32
-35
-37
-41
-39
-41
-41
-42
-43
-47
-46
-45
-42
-41
-37
-36
-30
-33
-26
-24
-20
-20
-15
-13
-8
-7
-3
-1
6
9
11
14
14
16
13
15
15
15
16
15
18
16
12
13
13
11
10
12
11
12
13
11
12
14
14
17
20
11
11
15
18
18
13
14
18
18
17
16
16
17
17
20
19
17
18
15
16
16
13
9
13
13
14
13
12
11
11
9
9
8
8
8
7
9
7
8
6
3
4
3
1
0
-3
-3
-4
-5
-3
-3
2
2
2
0
-1
-6
-7
-6
-4
-5
-5
-4
-6
-7
-9
-10
-8
-6
-4
-3
0
-5
-5
-5
-7
-10
-5
-9
-9
-10
-11
-9
-9
-9
-7
-11
-11
-12
-13
-14
-12
-13
-10
-7
-8
-10
-6
-8
-5
-9
-8
-9
-10
-11
-11
-10
-8
-7
-9
-9
-12
-15
-18
-18
-20
-19
-17
-17
-14
-13
-13
-12
-9
-11
-9
-12
-10
-13
-14
-15
-14
-15
-15
-14
-14
-14
-15
-15
-12
-18
-12
-8
-6
-5
-17
-31
-52
-75
-97
-106
-108
-100
-82
-60
-35
-12
6
18
23
23
22
13
16
7
3
2
1
-2
-1
-5
-6
-4
-1
-4
-5
-9
-6
-5
-8
-8
-8
-9
-5
-7
-6
-6
-8
-5
-8
-9
-11
-10
-13
-11
-12
-15
-13
-14
-16
-21
-19
-20
-19
-23
-24
-23
-25
-27
-30
-32
-31
-31
-33
-36
-35
-33
-30
-31
-28
-33
-35
-31
-30
-29
-33
-32
-28
-30
-25
-24
-20
-20
-12
-9
-7
-6
-3
-2
1
2
3
4
5
6
3
5
3
8
2
4
1
3
2
8
3
4
1
0
1
0
3
5
3
5
2
4
4
3
4
3
4
5
4
-3
-5
-2
2
-2
-2
1
-3
0
3
4
6
5
4
5
3
1
4
2
5
4
1
4
4
2
4
2
1
-1
1
-3
-4
0
-2
4
0
2
-1
2
2
0
1
-1
-2
-1
-1
0
-4
-7
-5
-9
-7
-9
-7
-2
-5
-4
-5
-7
-4
-9
-8
-9
-11
-5
-6
-7
-7
-5
-5
-2
-5
-5
-2
-4
-7
-5
-7
-6
-8
-7
-7
-9
-5
-5
-7
-5
-6
-9
-6
-9
-7
-4
-4
-6
-6
-9
-7
-4
-3
-3
-2
-4
0
-6
-9
-9
-11
-11
-12
-12
-9
-9
-9
-10
-8
-10
-9
-11
-9
-7
-7
-10
-8
-6
-8
-9
-7
-6
-7
-5
-7
-6
4
6
6
-2
-16
-34
-58
-80
-97
-105
-96
-79
-56
-33
-11
7
23
30
31
29
27
21
18
16
12
11
7
5
5
6
5
10
8
7
7
3
3
2
3
2
4
4
3
2
-1
1
2
1
0
-5
-4
-3
-5
-6
-7
-13
-7
-8
-11
-7
-11
-11
-15
-16
-19
-17
-20
-24
-29
-28
-28
-29
-30
-32
-35
-33
-33
-35
-32
-36
-36
-36
-34
-32
-33
-33
-27
-24
-23
-17
-17
-15
-11
-5
-4
1
8
8
10
8
7
10
9
11
10
11
11
11
11
11
14
11
10
10
10
12
12
17
17
15
16
14
12
13
9
10
12
9
9
7
9
4
9
6
5
5
8
4
5
5
2
4
2
0
0
5
2
2
2
0
0
1
-6
-3
-3
-7
-5
-3
-4
-6
-5
-1
-6
-6
-4
-7
-6
-7
-9
-7
-7
-5
-4
-9
-4
-7
-6
-6
-4
-5
-2
0
-2
-5
-5
-4
-1
-1
-4
-3
-4
-7
-5
-7
-8
-7
-7
-4
-4
-3
-5
-5
0
-4
-3
-4
-4
1
-3
1
1
-1
-3
-5
-5
-3
-3
-5
-4
-7
-4
-5
-3
-3
-3
-5
-4
-4
-6
-12
-8
-10
-11
-13
-10
-10
-8
-9
-10
-12
-17
-18
-17
-18
-16
-16
-14
-15
-13
-12
-14
-14
-16
-17
-15
-15
-14
-7
-6
-8
-19
-32
-54
-81
-94
-104
-106
-93
-73
-49
-23
-1
15
24
30
28
24
22
15
16
12
8
5
7
6
8
6
6
2
2
-3
-2
2
0
2
-3
2
1
-1
-1
-3
-3
-5
-4
-9
-8
-8
-6
-8
-8
-9
-9
-7
-9
-8
-11
-5
-7
-6
-9
-9
-11
-10
-14
-16
-21
-23
-22
-24
-26
-26
-25
-29
-27
-29
-31
-31
-32
-32
-35
-30
-26
-27
-22
-21
-17
-15
-11
-7
-4
-2
3
7
9
9
11
13
13
15
15
18
15
17
15
13
16
15
10
10
9
10
10
13
11
9
9
10
8
8
7
7
7
8
4
3
-2
-1
3
-3
-1
0
-2
-3
0
-4
0
-2
-1
-3
-1
-3
-3
-3
-4
-4
-7
-6
-4
-5
-6
-5
-6
-4
0
-5
-6
-5
-7
-4
-5
-5
-5
-3
-5
-8
-7
-4
-3
-4
-4
-5
-3
-2
-6
-3
-1
-2
1
2
0
-1
1
1
2
1
0
-1
1
1
-1
1
-2
-2
0
0
-1
0
0
-1
-1
2
0
-5
-5
-3
-8
-6
-5
-5
-5
-9
-6
-4
-8
-9
-10
-9
-8
-8
-11
-11
-12
-14
-14
-12
-16
-17
-16
-18
-21
-19
-18
-17
-19
-17
-15
-15
-15
-17
-14
-14
-14
-17
-17
-12
-15
-12
-13
-12
-12
-12
-12
-11
-8
-6
0
-3
-4
-16
-38
-61
-85
-96
-105
-100
-86
-65
-39
-15
5
19
28
29
30
22
18
16
13
10
11
10
6
5
6
6
4
4
5
-1
-1
2
4
1
-3
0
-2
-1
-1
-1
-4
-1
0
0
-1
-1
-6
-4
0
-4
-6
-4
-4
-6
-8
-7
-11
-13
-10
-12
-13
-14
-17
-19
-20
-21
-24
-26
-27
-29
-33
-32
-30
-31
-35
-31
-29
-28
-29
-31
-27
-27
-24
-18
-15
-15
-8
-4
-2
2
3
5
7
5
6
5
6
9
14
12
14
16
20
16
17
16
14
14
14
12
12
11
13
9
9
13
9
10
10
11
8
8
9
10
10
9
5
9
9
8
3
5
5
4
4
4
3
2
5
1
3
5
3
5
3
-1
0
-4
-5
-5
-6
-7
-5
-4
-7
-7
-6
-7
-4
-7
-1
-5
-4
-7
-7
-6
-8
-6
-6
-6
-6
-9
-6
-7
-8
-10
-9
-9
-5
-8
-8
-11
-10
-10
-12
-12
-9
-9
-11
-10
-10
-9
-7
-6
-7
-10
-13
-16
-15
-14
-15
-16
-15
-18
-14
-14
-15
-15
-15
-12
-18
-14
-16
-15
-13
-12
-10
-9
-8
-10
-12
-11
-12
-15
-13
-14
-14
-12
-16
-16
-23
-19
-23
-19
-15
-17
-16
-15
-11
-14
-13
-11
-10
-8
-12
-13
-14
-15
-14
-19
-17
-21
-14
-20
-19
-19
-19
-17
-14
-8
-6
-15
-23
-42
-67
-89
-103
-109
-104
-90
-67
-44
-19
-1
9
17
18
18
15
8
-1
-5
-9
-8
-9
-10
-9
-10
-11
-11
-13
-12
-13
-15
-17
-12
-14
-11
-12
-14
-14
-10
-13
-13
-10
-13
-10
-11
-10
-10
-13
-6
-7
-7
-8
-6
-8
-13
-14
-11
-14
-16
-18
-16
-25
-23
-26
-24
-28
-31
-34
-36
-38
-36
-34
-37
-36
-38
-37
-36
-38
-33
-32
-30
-28
-25
-23
-18
-17
-17
-11
-4
3
8
12
12
18
20
20
19
17
19
22
22
22
19
19
19
18
24
20
19
19
17
19
18
18
22
15
15
16
16
15
14
16
14
14
11
14
12
14
12
13
11
11
7
9
16
14
9
10
11
7
8
13
13
13
12
13
10
9
8
9
7
12
12
9
9
9
8
6
7
5
6
7
4
3
5
5
4
3
1
8
3
4
1
-1
4
-3
-4
0
-3
-3
0
-2
-1
-2
-1
0
3
0
4
-1
1
-2
-4
-5
-8
-8
-9
-13
-13
-8
-11
-13
-10
-11
-12
-10
-12
-9
-10
-10
-9
-11
-12
-12
-13
-12
-13
-11
-11
-13
-13
-10
-13
-13
-10
-13
-13
-12
-16
-13
-15
-14
-14
-13
-10
-10
-6
-7
-8
-8
-5
-5
-7
-9
-6
-5
-9
-9
-6
-4
-5
-5
-3
-3
2
1
7
8
3
-7
-23
-46
-73
-90
-96
-100
-86
-64
-42
-17
5
20
26
31
28
28
23
16
11
9
9
10
3
1
-1
0
0
-5
-3
-3
-5
-8
-7
-7
-5
-4
-8
-6
-6
-10
-9
-10
-10
-9
-9
-8
-8
-10
-11
-9
-9
-8
-12
-12
-11
-10
-16
-13
-12
-16
-15
-17
-21
-18
-21
-27
-26
-26
-27
-31
-35
-35
-36
-41
-35
-32
-32
-31
-31
-27
-29
-28
-24
-24
-18
-15
-14
-10
-8
-6
-7
-1
-1
3
3
6
9
11
13
11
8
9
8
8
7
9
12
3
5
8
5
3
5
6
3
4
1
1
-1
3
4
1
1
4
3
5
6
4
5
6
1
3
3
5
3
1
0
-5
-3
-4
-6
-6
-9
-8
-6
-5
-5
-4
-4
-5
-4
-7
-6
-5
-8
-4
-6
-8
-9
-3
-5
-5
-7
-7
-6
-5
-7
-9
-10
-6
-7
-6
-8
-9
-6
-6
-7
-7
-9
-7
-2
-7
-8
-10
-8
-10
-7
-9
-6
-7
1
-2
-4
-5
-7
-2
-4
-6
-4
-5
-5
-5
-7
-10
-4
-10
-5
-8
-10
-9
-10
-9
-11
-12
-11
-14
-15
-13
-11
-13
-9
-8
-7
-6
-6
-6
-6
-10
-9
-7
-7
-10
-10
-9
-11
-14
-9
-15
-12
-11
-13
-18
-15
-18
-17
-20
-17
-17
-17
-14
-11
-9
-9
-9
-9
-6
-7
-8
-12
-6
-6
-5
-8
-6
-8
-4
-3
-6
-5
2
4
6
3
1
-13
-32
-55
-78
-92
-96
-93
-72
-52
-31
-6
10
20
27
30
25
23
17
14
11
10
9
7
4
4
4
5
-2
-5
-4
-4
-7
-5
-7
-6
-5
-6
-4
-3
-4
-6
-5
-4
-7
-9
-7
-4
-4
-2
-5
-3
-8
-8
-12
-10
-8
-11
-12
-12
-15
-13
-18
-20
-21
-24
-25
-26
-29
-30
-34
-34
-35
-34
-36
-35
-37
-37
-34
-34
-34
-31
-30
-28
-27
-24
-20
-18
-15
-11
-4
-2
2
5
5
5
7
5
9
9
10
12
11
12
7
11
11
13
13
10
10
10
12
8
9
6
10
9
11
11
11
12
13
14
11
12
11
16
15
13
13
13
11
15
15
11
12
13
10
9
10
11
10
7
8
5
4
6
1
3
5
4
4
3
1
-3
-4
-1
-3
-4
-5
-4
-4
-4
0
-3
-3
0
-3
-2
0
-1
1
0
-3
-1
-2
-5
-5
-3
0
-2
-3
0
0
0
-1
1
-5
-2
-3
-2
-5
0
-3
-5
-4
-4
-5
0
-3
-5
-9
-6
-8
-7
-8
-9
-10
-9
-10
-13
-11
-11
-11
-11
-11
-12
-13
-16
-13
-14
-14
-14
-13
-15
-12
-14
-13
-15
-15
-14
-18
-17
-20
-19
-20
-18
-18
-20
-21
-23
-24
-27
-25
-25
-24
-23
-23
-22
-21
-18
-20
-15
-17
-15
-14
-13
-13
-12
-15
-12
-13
-14
-15
-13
-14
-11
-11
-7
-3
1
-3
-19
-33
-56
-83
-96
-102
-99
-80
-56
-31
-9
10
26
35
35
35
31
29
22
20
15
15
13
16
15
14
14
13
13
15
15
9
11
8
7
5
7
5
5
4
5
3
3
2
2
3
1
-4
0
0
-3
-6
-4
-5
-11
-9
-13
-11
-12
-15
-16
-21
-23
-25
-27
-27
-31
-32
-33
-29
-32
-32
-36
-38
-41
-40
-40
-40
-38
-38
-34
-32
-27
-25
-22
-20
-15
-14
-9
-7
-8
-3
3
6
8
11
12
12
13
14
13
9
7
9
6
6
4
4
5
8
5
5
7
9
6
5
1
3
-1
2
0
1
-3
-2
0
-3
2
2
2
2
4
4
5
9
9
9
6
10
9
7
3
3
2
4
4
4
5
5
8
9
8
5
5
5
7
5
1
3
4
6
4
4
4
3
3
0
-3
-5
-3
-3
0
2
2
2
4
2
-2
1
1
4
4
8
4
1
2
0
4
3
3
1
-4
-6
-5
-6
-3
-7
-7
-11
-9
-6
-7
-8
-8
-9
-6
-5
-6
-7
-3
1
2
1
1
4
3
4
1
1
0
-4
-3
-5
-5
-7
-4
-5
-5
-6
-9
-4
-9
-8
-7
-10
-12
-14
-16
-19
-16
-14
-14
-11
-10
-7
-6
-8
-7
-7
-7
-9
-9
-8
-7
-2
-5
-7
-4
-5
-6
-3
-5
0
-4
0
3
7
6
4
-10
-32
-56
-82
-97
-102
-98
-85
-61
-34
-12
7
16
23
24
23
21
18
11
5
8
4
3
1
0
-3
0
-5
-6
-4
-3
-2
-4
-7
-7
-6
-6
-5
-7
-11
-9
-5
-13
-12
-11
-10
-9
-9
-10
-9
-10
-14
-15
-16
-15
-15
-16
-17
-16
-20
-18
-18
-21
-22
-26
-26
-27
-30
-33
-35
-36
-33
-39
-39
-41
-40
-39
-37
-37
-32
-33
-30
-27
-28
-23
-22
-17
-14
-8
-7
-5
0
3
6
3
5
7
7
9
8
7
11
11
9
9
7
12
10
8
10
11
10
9
8
10
8
8
6
5
8
4
5
1
0
0
0
-1
1
-2
0
0
2
1
0
1
-4
-1
4
1
-1
4
5
4
-1
-1
-1
-3
-2
-2
-4
-4
-3
-2
-5
-6
-5
-4
-1
-4
-2
-2
0
1
-5
0
0
-4
-5
-5
-4
-6
-5
-4
-3
-5
-3
-6
-6
-7
-3
-5
-5
-4
-9
-8
-5
-7
-7
-5
-9
-6
-8
-7
-8
-6
-6
-6
-7
-4
-9
-5
-6
-7
-7
-7
-6
-5
-6
-7
-9
-8
-6
-8
-9
-10
-11
-9
-11
-10
-13
-13
-10
-7
-9
-7
-12
-13
-8
-10
-8
-10
-8
-15
-13
-15
-17
-14
-18
-19
-16
-18
-17
-18
-18
-13
-13
-11
-9
-8
-6
-4
-4
-5
-7
-3
-3
-4
-5
0
-7
-4
-4
-3
-4
-4
0
-1
1
0
-11
-27
-46
-74
-95
-104
-103
-95
-75
-51
-28
-5
10
19
21
22
16
13
9
4
2
1
3
-3
-2
-4
-2
-5
-5
-5
-5
-5
-9
-10
-10
-15
-13
-17
-18
-14
-17
-15
-16
-17
-17
-16
-18
-15
-16
-12
-17
-14
-19
-20
-27
-24
-23
-24
-28
-28
-27
-28
-28
-29
-36
-34
-36
-36
-39
-44
-42
-45
-43
-44
-47
-47
-49
-49
-47
-46
-45
-42
-38
-32
-29
-30
-25
-23
-17
-17
-15
-12
-4
-1
3
5
9
14
11
13
12
16
16
14
18
17
17
18
19
19
17
19
17
16
13
14
13
13
11
9
9
7
8
9
7
6
7
8
8
5
-1
4
0
4
2
1
7
10
9
11
11
11
13
11
11
12
11
11
10
9
11
11
11
9
12
11
10
11
11
10
8
8
5
4
0
-3
-2
0
0
-5
-4
-5
-5
-4
-6
-6
-10
-8
-8
-9
-12
-9
-9
-11
-12
-11
-12
-8
-10
-10
-6
-7
-5
-5
-4
-3
0
2
1
-5
-3
-2
-1
-2
-2
-7
-4
-4
-4
-3
-2
0
-2
-2
0
-1
-1
-2
2
1
1
1
2
2
1
-1
-1
1
1
-6
-5
-4
-6
-8
-9
-5
-4
-5
-1
0
0
-1
-2
-12
-8
-7
-5
-7
-7
-8
-9
-8
-4
-6
-3
-6
-7
-4
-5
-3
2
4
3
-3
-23
-40
-68
-88
-100
-103
-93
-73
-50
-25
-2
18
24
30
28
28
22
19
16
10
10
7
8
7
4
2
3
3
3
3
0
1
-1
1
0
-5
-3
0
0
-4
-2
2
1
-2
-3
-5
-4
0
-3
-8
-5
-8
-10
-11
-13
-13
-16
-19
-21
-20
-18
-20
-21
-22
-26
-30
-33
-31
-35
-38
-40
-37
-42
-42
-40
-41
-43
-43
-39
-36
-37
-37
-33
-28
-26
-21
-18
-15
-7
-6
-5
-2
3
4
4
9
8
8
11
11
11
10
10
12
12
14
12
10
10
11
8
9
8
5
6
5
4
5
6
6
5
6
5
5
8
3
5
8
3
3
2
4
2
6
0
0
0
-1
4
3
2
1
1
2
0
0
0
3
-1
-3
-5
-5
0
-3
-1
-6
-4
0
-4
-2
-6
-7
-3
-3
-7
-7
-8
-8
-5
-5
-4
-3
-3
-4
-7
-5
-5
0
-4
-4
-9
-8
-7
-4
-5
-6
-4
-7
-5
-6
-7
-3
-4
-3
-2
-6
-4
-1
-2
-1
-4
-4
-5
-3
-5
-1
-3
-4
-7
-6
-7
-7
-3
-4
-7
0
-4
-4
-2
-3
-4
0
-2
1
1
0
0
-2
2
5
3
1
1
-2
0
-2
-2
2
4
-1
1
2
6
3
4
6
3
4
4
6
4
3
3
7
2
1
1
3
7
3
8
13
10
4
-13
-37
-59
-80
-88
-95
-87
-68
-45
-17
4
24
30
34
32
27
22
17
14
11
8
9
8
7
4
3
3
1
3
-1
-3
-2
0
0
1
1
-5
-4
-2
-3
-6
-7
-9
-10
-4
-6
-7
-9
-11
-8
-7
-8
-8
-9
-9
-10
-11
-13
-17
-14
-17
-23
-20
-21
-27
-29
-30
-34
-37
-38
-38
-38
-40
-41
-39
-40
-40
-40
-40
-41
-36
-36
-37
-30
-21
-22
-17
-13
-10
-3
-4
1
2
1
8
5
4
8
9
12
10
10
9
11
11
11
9
11
12
9
7
7
6
6
4
6
5
2
4
3
8
6
5
5
5
4
3
4
0
4
5
2
2
5
2
3
4
6
6
8
3
3
4
5
8
4
8
6
4
7
4
2
1
5
3
3
4
3
8
4
2
2
1
-1
-1
-5
-7
-6
-9
-8
-8
-12
-8
-12
-11
-10
-13
-12
-10
-9
-13
-11
-11
-12
-11
-9
-12
-9
-8
-6
-7
-8
-8
-6
-9
-13
-10
-9
-8
-10
-8
-11
-8
-11
-10
-6
-8
-9
-9
-11
-10
-9
-9
-13
-13
-18
-17
-17
-11
-11
-12
-11
-9
-8
-5
-6
-9
-11
-8
-7
-8
-10
-13
-15
-15
-14
-19
-15
-16
-15
-12
-10
-10
-11
-8
-11
-12
-12
-11
-14
-14
-13
-16
-11
-11
-11
-13
-15
-14
-8
-11
-7
-4
-3
-3
-18
-41
-61
-87
-101
-107
-102
-85
-66
-36
-14
8
23
28
27
28
23
14
10
4
1
0
-1
-4
-3
-5
-6
-3
-5
-5
-7
-6
-10
-10
-9
-13
-13
-8
-10
-9
-8
-8
-9
-13
-7
-6
-8
-5
-4
-6
-7
-7
-7
-8
-13
-10
-8
-14
-12
-15
-13
-14
-19
-21
-23
-23
-30
-32
-32
-36
-40
-43
-41
-44
-45
-46
-43
-44
-44
-42
-37
-38
-32
-30
-29
-28
-26
-21
-17
-11
-6
-7
-4
1
3
7
2
3
8
5
8
6
7
8
4
8
3
5
6
3
6
3
5
5
5
3
6
10
6
8
5
6
6
6
5
3
7
2
7
8
8
8
5
8
8
7
8
8
7
7
6
5
5
5
6
4
7
1
2
4
3
2
-3
-1
3
4
3
5
9
8
8
5
5
5
6
8
5
3
3
4
5
4
1
-3
0
0
0
1
-3
3
0
-1
0
4
-2
-2
-1
0
-2
-1
-1
4
2
2
-1
1
-1
-3
-1
0
5
6
4
5
5
4
2
-1
2
2
3
-3
-2
-4
-4
-4
-4
-7
-7
-7
-5
-9
-6
-4
-6
-4
-6
-4
-9
-5
-7
-7
-8
-7
-6
-7
-5
-7
-4
-4
-9
-4
-5
-5
-4
-2
-3
-5
-9
-4
-4
-4
2
-2
0
-5
-3
2
-5
-3
3
9
9
4
-6
-27
-53
-75
-92
-103
-101
-91
-71
-43
-19
4
14
24
30
28
21
17
12
8
5
-3
-2
-2
2
-3
1
-1
0
-1
1
1
-2
-4
-3
-1
-1
4
6
4
2
4
-2
-4
-4
-3
-3
-4
-6
-2
-2
-2
0
-2
-1
-5
-5
-6
-10
-11
-11
-10
-10
-16
-16
-20
-22
-25
-26
-26
-29
-27
-31
-28
-33
-30
-31
-28
-31
-30
-28
-27
-27
-25
-18
-13
-10
-9
-5
1
8
8
6
10
9
11
13
13
13
17
15
16
16
14
16
15
17
17
13
14
15
15
12
13
13
13
11
10
8
11
10
9
9
10
16
12
13
12
10
13
9
9
6
7
9
6
8
7
5
9
7
9
8
5
6
5
8
4
4
3
6
8
9
7
6
6
8
5
4
3
7
6
1
4
3
2
3
3
1
3
-1
1
-5
0
0
2
1
-5
-5
-2
-3
-2
-5
-8
-5
-5
-14
-17
-16
-16
-15
-13
-14
-17
-18
-16
-14
-17
-13
-14
-13
-16
-18
-17
-14
-12
-15
-13
-11
-12
-10
-11
-8
-9
-10
-6
-7
-8
-7
-8
-9
-7
-9
-6
-7
-10
-8
-7
-7
-4
-7
-9
-6
-9
-10
-11
-13
-16
-16
-20
-21
-20
-16
-17
-19
-17
-14
-16
-12
-13
-10
-8
-8
-9
-7
-7
-3
-4
-6
-3
-5
-2
-4
-4
-6
-6
-3
-6
-3
1
2
-5
-14
-33
-55
-77
-94
-105
-101
-85
-65
-37
-17
4
16
23
27
24
19
16
12
8
6
2
2
2
3
4
1
-1
1
-2
-4
-7
-7
-10
-9
-12
-12
-11
-8
-9
-6
-10
-13
-8
-14
-13
-11
-8
-13
-9
-13
-12
-12
-15
-15
-20
-18
-20
-18
-21
-20
-21
-18
-24
-22
-28
-31
-35
-36
-39
-41
-43
-44
-42
-42
-40
-42
-41
-39
-39
-36
-37
-35
-31
-26
-25
-22
-15
-10
-6
-5
-3
2
3
5
10
14
10
12
11
10
12
10
9
6
6
8
5
9
4
4
2
0
-1
-1
1
0
2
3
2
4
4
2
2
-2
1
-1
-3
-1
-1
1
0
3
2
2
3
5
3
5
7
5
2
2
3
3
3
2
-1
2
1
1
1
3
1
-1
-1
-1
0
-2
-4
-2
0
-4
-1
0
0
4
2
3
2
-3
-2
-4
-5
-3
-7
-7
-5
-5
-5
-5
-5
-3
-3
-1
-4
0
-7
0
0
-4
-5
-2
-5
-4
-2
-3
-4
-5
-5
-2
-3
-4
-3
-3
-3
-3
-6
-4
-5
-9
-11
-7
-6
-5
-7
-7
-7
-4
-5
-7
-7
-9
-10
-8
-12
-8
-10
-7
-8
-9
-6
-8
-6
-6
-8
-11
-11
-12
-10
-11
-13
-10
-11
-14
-10
-10
-13
-8
-11
-10
-10
-8
-7
-7
-6
-7
-8
-8
-11
-11
-8
-12
-10
-13
-9
-11
-12
-13
-11
-10
-3
-5
-10
-21
-40
-69
-94
-109
-112
-105
-91
-70
-44
-19
-5
11
18
21
19
17
7
3
-1
-6
-11
-10
-12
-10
-11
-11
-12
-12
-13
-12
-14
-12
-13
-16
-16
-16
-17
-17
-18
-17
-19
-17
-19
-21
-17
-21
-19
-18
-20
-21
-25
-22
-20
-23
-24
-29
-28
-28
-30
-32
-32
-37
-34
-38
-37
-39
-40
-42
-42
-43
-42
-43
-43
-45
-45
-48
-48
-47
-44
-40
-37
-36
-33
-29
-24
-21
-19
-14
-9
-7
0
-1
4
3
8
13
16
15
16
15
15
11
16
16
14
14
14
16
15
17
17
18
17
14
13
9
11
9
12
9
11
10
11
11
11
12
11
12
14
10
14
14
14
18
16
18
15
16
15
9
8
8
7
8
12
12
10
7
11
10
6
8
7
6
7
7
6
7
6
4
8
5
6
4
5
4
-1
2
4
4
3
4
3
3
3
1
3
-1
6
5
5
4
3
7
6
3
4
6
6
5
5
3
5
5
6
5
8
6
6
3
3
2
2
3
1
3
2
2
2
3
1
-2
0
0
-1
-6
-7
-9
-8
-8
-9
-9
-9
-6
-7
-8
-8
-9
-7
-8
-7
-10
-12
-17
-12
-19
-18
-16
-16
-17
-12
-14
-14
-12
-11
-10
-9
-9
-8
-9
-13
-9
-10
-7
-6
-9
-9
-9
-10
-12
-8
-8
-5
0
1
-6
-17
-34
-58
-85
-102
-109
-102
-91
-71
-42
-21
4
18
28
29
27
28
21
17
11
7
5
4
2
-3
-2
-5
-7
-8
-6
-5
-8
-8
-5
-4
-9
-7
-9
-3
-5
-6
-8
-5
-5
-9
-11
-11
-9
-9
-12
-9
-9
-7
-5
-4
-7
-6
-4
-3
-6
-5
-13
-7
-7
-14
-18
-21
-20
-22
-25
-26
-27
-26
-29
-31
-33
-31
-30
-31
-28
-31
-29
-26
-22
-19
-17
-13
-9
-4
4
2
6
8
9
14
11
16
18
20
19
19
20
21
21
21
24
24
22
21
18
17
15
14
17
14
13
15
13
14
11
11
10
16
19
16
16
16
15
14
10
15
10
13
13
14
13
12
13
15
11
13
12
11
7
11
9
6
8
5
5
5
3
6
1
3
5
2
1
3
-4
0
-4
-2
-1
0
-1
0
2
4
0
-5
-3
-5
-1
0
-3
0
-2
-3
0
-6
-6
-8
-9
-9
-8
-8
-10
-8
-13
-13
-12
-11
-11
-11
-11
-11
-13
-9
-11
-10
-11
-11
-13
-12
-9
-12
-12
-12
-10
-14
-13
-13
-10
-12
-15
-12
-14
-15
-15
-16
-12
-13
-15
-14
-14
-16
-19
-18
-21
-19
-19
-18
-17
-15
-19
-10
-10
-8
-11
-10
-11
-12
-8
-11
-12
-14
-12
-12
-13
-12
-12
-12
-16
-19
-18
-15
-12
-11
-10
-13
-21
-34
-52
-78
-101
-112
-114
-106
-90
-65
-39
-15
4
11
19
19
17
12
7
1
-4
-4
-9
-5
-7
-9
-6
-6
-5
-7
-7
-5
-9
-9
-10
-10
-10
-10
-14
-17
-15
-17
-16
-15
-18
-20
-18
-17
-19
-19
-15
-18
-14
-15
-20
-15
-15
-19
-20
-22
-24
-24
-26
-28
-30
-30
-29
-26
-33
-37
-38
-39
-40
-39
-41
-40
-42
-42
-41
-43
-42
-38
-37
-30
-33
-28
-23
-18
-15
-12
-13
-7
-1
2
4
7
10
16
14
12
16
16
15
14
11
15
16
17
14
14
17
12
9
8
8
8
9
11
8
9
7
9
7
14
8
12
8
8
10
8
8
9
10
9
7
5
5
6
7
9
8
12
12
10
7
6
5
8
5
6
7
6
8
7
8
5
7
7
6
8
3
5
4
5
2
5
4
5
4
4
3
6
6
4
5
4
3
8
4
4
3
6
6
7
4
3
3
4
5
6
3
4
5
7
4
5
5
6
9
8
8
7
4
2
-2
-2
-7
-8
-8
-9
-10
-8
-8
-9
-12
-8
-6
-2
-6
-8
-6
-8
-7
-9
-13
-15
-12
-16
-16
-19
-19
-15
-14
-15
-14
-12
-11
-11
-8
-7
-9
-7
-7
-5
-8
-9
-8
-4
-7
-4
-5
-5
-7
-6
-5
-2
1
2
8
3
-5
-24
-45
-70
-93
-100
-99
-86
-66
-43
-15
8
25
33
35
35
35
28
23
18
14
11
9
5
5
5
5
6
1
-2
4
2
1
-1
-5
-2
0
-4
-5
-7
-13
-9
-8
-6
-10
-8
-9
-11
-12
-15
-15
-20
-18
-18
-22
-23
-20
-23
-22
-24
-23
-24
-23
-23
-25
-25
-25
-26
-28
-28
-33
-35
-34
-36
-39
-41
-41
-38
-39
-38
-38
-34
-31
-28
-26
-23
-22
-17
-12
-9
-7
-3
4
3
3
6
10
9
9
7
10
10
16
15
16
13
16
15
16
16
15
14
13
13
8
9
8
10
6
6
3
6
8
6
9
5
6
7
8
2
0
8
6
4
4
6
4
2
1
4
3
0
0
2
0
1
2
-1
4
-2
-2
0
-5
-3
-4
-5
-4
-5
-5
-4
-6
-7
-5
-5
0
-3
-4
-6
-9
-8
-9
-8
-7
-6
-5
-8
-4
-2
-4
-5
-5
1
1
-3
-9
-2
-3
-5
-5
-6
-6
-4
-5
-3
-5
-4
-1
-5
-2
-2
-3
2
-3
-5
0
-1
1
0
-6
-7
-11
-9
-9
-12
-11
-7
-8
-6
-4
-5
-4
-5
-5
-4
-4
-6
-5
-4
-4
-6
-4
-3
-3
-3
-5
-3
-3
2
5
7
3
-5
-18
-37
-66
-86
-100
-102
-97
-81
-54
-30
-4
12
21
29
30
28
22
18
16
10
10
7
8
8
6
3
4
0
-4
-3
-5
-4
-6
-7
-6
-6
-9
-8
-6
-7
-11
-9
-12
-13
-13
-15
-16
-17
-13
-15
-15
-17
-16
-18
-18
-16
-16
-19
-20
-22
-25
-24
-28
-33
-32
-34
-33
-35
-34
-38
-37
-37
-36
-38
-44
-43
-43
-39
-39
-40
-37
-36
-29
-27
-24
-19
-16
-9
-7
1
4
3
9
8
8
9
11
13
16
17
18
19
17
15
13
16
14
16
16
15
13
7
8
4
8
10
7
8
3
3
8
8
9
7
10
7
10
10
11
11
14
11
12
9
12
12
7
10
7
10
7
5
6
5
6
7
4
6
4
5
8
4
4
5
3
4
6
2
4
3
5
4
6
3
5
9
5
3
8
3
3
1
4
0
-2
-1
-2
0
-5
-9
-4
-6
-5
-5
-3
-6
-6
-8
-8
-8
-8
-10
-12
-11
-11
-15
-16
-11
-12
-9
-8
-7
-9
-4
-6
-4
0
-5
0
-2
-3
2
0
1
-1
-5
-3
-3
-1
4
4
12
9
5
-7
-27
-46
-70
-87
-91
-89
-75
-54
-33
-11
9
23
28
32
29
27
23
17
14
13
8
8
6
8
9
5
3
1
-2
-5
-3
-3
-2
-5
0
-4
-3
0
-4
-5
-8
-6
-13
-12
-12
-13
-14
-13
-12
-12
-13
-13
-13
-14
-14
-15
-17
-15
-20
-25
-21
-29
-28
-30
-36
-36
-34
-38
-38
-39
-37
-41
-45
-44
-47
-43
-47
-49
-45
-46
-42
-38
-37
-35
-30
-26
-24
-21
-17
-11
-9
-7
-4
-5
-1
7
3
4
6
7
6
7
5
5
7
4
6
3
4
5
4
8
6
1
3
3
1
-1
0
-1
3
2
4
5
6
3
5
3
3
6
4
1
-1
1
1
3
8
5
5
5
1
4
1
-3
4
-1
0
-2
-6
-9
0
-5
-3
-2
-1
-5
0
-3
-1
-4
-4
-3
0
0
-2
-3
-4
-7
-9
-5
-5
-6
-6
-5
-6
-5
-10
-8
-9
-8
-8
-13
-10
-9
-7
-5
-6
-7
-7
1
-6
-4
-5
-8
-7
-5
-6
-7
-4
-4
-7
-7
-8
-6
-6
-4
-6
-7
-7
-7
-6
-8
-7
-9
-9
-8
-9
-12
-13
-14
-10
-9
-9
-8
-4
-6
-9
-7
-5
-3
-5
-6
-6
-5
-5
-8
-6
-7
-4
-10
-9
-6
-10
-8
-7
-1
-1
-9
-16
-34
-60
-85
-101
-107
-102
-87
-66
-40
-16
2
15
22
22
20
19
12
10
6
-2
-2
-1
-1
-2
-2
-5
-4
0
-5
-5
-6
-8
-7
-8
-10
-13
-6
-9
-12
-11
-10
-9
-11
-10
-14
-11
-10
-12
-12
-10
-13
-12
-11
-14
-9
-13
-12
-12
-21
-19
-18
-18
-21
-26
-26
-27
-30
-34
-33
-37
-41
-37
-38
-41
-38
-40
-38
-39
-38
-35
-35
-31
-26
-27
-24
-19
-19
-15
-8
-7
-5
1
1
4
6
8
11
12
11
11
12
14
13
12
13
13
13
10
10
9
10
12
10
9
5
8
6
6
7
6
7
10
8
9
10
9
7
8
9
6
5
7
7
9
8
8
-1
-3
0
0
2
5
3
5
7
7
8
6
5
1
3
5
3
6
4
4
1
3
6
3
4
5
3
4
6
4
3
8
6
3
4
4
6
2
1
-4
-4
0
-3
1
2
1
1
0
1
2
0
-2
-1
0
-2
0
-3
0
-4
-4
-1
-2
-5
-3
-3
1
0
-3
-2
-3
-2
-7
-3
-6
-3
-6
-3
-6
-6
-9
-11
-11
-15
-14
-17
-16
-16
-16
-18
-13
-15
-15
-15
-16
-14
-16
-19
-19
-20
-20
-21
-20
-20
-23
-19
-19
-17
-17
-17
-10
-10
-8
-13
-27
-43
-66
-89
-105
-107
-105
-89
-66
-42
-18
3
15
23
26
23
19
16
8
5
-2
-3
2
-3
-5
-4
-4
-6
-5
-9
-6
-7
-9
-8
-10
-12
-10
-12
-10
-12
-10
-12
-12
-13
-15
-17
-15
-17
-14
-13
-12
-17
-13
-14
-15
-17
-16
-13
-18
-18
-23
-23
-24
-24
-30
-29
-29
-29
-29
-35
-37
-36
-38
-41
-34
-38
-32
-36
-33
-34
-32
-31
-26
-22
-21
-18
-14
-10
-5
-2
3
6
7
12
12
11
15
17
18
19
16
19
21
19
19
18
18
16
19
15
16
18
18
15
15
17
15
14
13
11
12
7
12
9
7
7
8
8
5
6
7
5
8
10
10
7
9
12
15
12
11
12
7
9
7
5
3
3
3
5
7
8
3
6
1
0
1
2
2
0
0
3
2
2
-1
-3
1
3
1
-2
-2
1
4
2
-2
-1
1
2
1
1
-2
-2
1
0
-4
-3
-4
-2
-5
-6
-4
-2
-6
-4
-6
-6
-10
-10
-10
-13
-12
-10
-9
-9
-8
-6
-6
-4
-6
-4
-9
-7
-7
-5
0
-9
-9
-9
-7
-9
-7
-10
-6
-9
-6
-3
1
1
-8
-25
-41
-69
-86
-97
-96
-88
-69
-41
-21
3
17
30
32
30
28
24
14
13
11
6
3
4
2
3
0
0
-2
1
-5
-5
-8
-6
-6
-6
-7
-9
-5
-10
-8
-9
-13
-13
-9
-7
-13
-12
-12
-10
-12
-17
-12
-15
-15
-14
-12
-18
-18
-20
-21
-20
-25
-27
-28
-29
-32
-34
-34
-37
-38
-37
-39
-41
-39
-42
-37
-39
-35
-32
-30
-31
-30
-25
-22
-15
-15
-11
-9
-5
-2
2
6
3
6
6
10
8
12
17
16
16
18
15
20
17
13
12
11
10
12
13
10
12
12
11
10
11
10
7
12
7
7
8
4
8
9
10
7
10
14
10
6
8
7
3
5
3
4
4
4
0
3
1
3
1
1
1
-1
5
3
2
0
3
1
1
4
-1
-3
-3
-6
-5
-6
-2
-2
1
-5
-4
-2
-5
-5
-4
-6
-6
-5
-7
-9
-7
-4
-5
-3
-9
-7
-7
-7
-10
-8
-10
-9
-8
-9
-10
-9
-8
-8
-9
-9
-10
-9
-13
-11
-11
-8
-9
-8
-6
-8
-13
-13
-13
-16
-15
-20
-22
-22
-23
-24
-22
-24
-25
-22
-20
-20
-17
-17
-19
-19
-17
-19
-21
-16
-15
-15
-16
-16
-17
-17
-16
-14
-14
-15
-12
-11
-7
0
-5
-8
-23
-42
-66
-87
-103
-106
-101
-84
-58
-33
-11
8
22
27
28
25
21
18
16
11
12
10
8
7
6
7
2
4
1
1
-4
-1
-3
-2
-5
-3
1
0
1
-1
-4
-2
-6
-5
-3
-5
-4
-4
-5
-4
-7
-8
-10
-9
-11
-13
-13
-16
-14
-16
-16
-18
-24
-24
-27
-26
-30
-32
-34
-33
-37
-36
-37
-33
-36
-36
-39
-39
-32
-32
-36
-32
-29
-25
-22
-21
-19
-15
-10
-6
-4
-1
-2
3
4
10
12
12
12
12
10
12
13
14
10
10
11
12
12
11
7
8
10
8
8
6
6
8
8
9
8
8
3
7
6
7
5
8
5
8
8
7
7
8
5
8
5
6
9
9
7
8
12
12
7
9
8
9
8
6
5
9
8
10
10
9
10
11
9
7
7
9
10
14
14
16
16
18
13
15
12
9
8
9
10
7
9
9
8
8
7
7
5
3
4
6
4
6
3
8
8
8
6
5
2
1
1
3
3
-5
2
0
0
2
0
-3
-3
-6
-4
-11
-11
-10
-12
-7
-9
-8
-11
-10
-10
-12
-15
-19
-15
-16
-20
-18
-16
-16
-14
-15
-14
-11
-9
-9
-7
-5
-7
-2
-3
0
-5
1
-5
-4
-4
-1
0
-3
-3
-3
-3
-6
0
4
8
7
3
-9
-26
-47
-72
-90
-97
-92
-83
-60
-36
-14
8
21
30
34
31
28
20
18
15
12
12
12
7
8
6
5
6
-1
4
5
6
4
2
1
-3
-3
4
-4
-4
-3
-2
-4
-2
-5
-2
-6
-7
-6
-11
-8
-9
-9
-9
-11
-9
-11
-13
-16
-19
-21
-20
-23
-25
-24
-28
-31
-31
-32
-34
-33
-35
-37
-40
-40
-39
-40
-41
-41
-40
-37
-36
-32
-33
-29
-22
-21
-19
-15
-6
-6
-3
3
4
3
8
11
8
8
11
11
10
11
11
7
7
10
9
6
5
3
3
3
3
4
6
6
4
-2
3
2
0
2
3
4
3
3
4
0
3
4
2
-5
0
-3
-4
-3
0
-2
-4
-2
-6
-5
-5
-2
-7
-5
-3
-5
-3
-4
-5
0
-7
-6
-8
-12
-12
-12
-10
-14
-12
-9
-13
-8
-7
-6
-5
-3
-4
-7
-4
-6
-7
-7
-4
-3
-8
-7
-6
-4
-4
-9
-4
-4
-8
-6
-11
-9
-9
-7
-9
-10
-10
-9
-10
-6
-10
-11
-10
-12
-13
-11
-21
-19
-19
-16
-17
-16
-17
-15
-14
-15
-17
-14
-10
-10
-10
-13
-10
-8
-8
-7
-10
-10
-9
-11
-11
-12
-10
-10
-13
-12
-16
-15
-16
-19
-20
-24
-22
-24
-23
-23
-20
-21
-17
-12
-13
-13
-11
-16
-12
-13
-9
-10
-6
-8
-8
-6
-7
-9
-8
-8
-5
-4
-5
-1
7
9
5
-4
-20
-43
-69
-84
-90
-89
-79
-60
-36
-8
11
25
32
37
36
31
27
20
17
12
10
7
5
5
-1
3
2
0
-1
-3
-3
-2
1
-5
-5
-3
-3
-1
-2
-6
-6
-4
-6
-4
-7
-7
-5
-8
-5
-9
-8
-9
-10
-9
-11
-12
-14
-17
-18
-18
-19
-18
-21
-20
-24
-25
-24
-26
-30
-30
-33
-30
-37
-37
-38
-37
-39
-38
-41
-36
-33
-29
-24
-23
-21
-18
-17
-14
-15
-11
-5
-6
-3
0
3
3
8
5
3
7
7
7
10
9
11
13
14
11
11
8
12
10
7
9
12
10
10
8
7
12
8
4
4
3
2
0
2
-2
-2
0
0
0
-4
-2
-2
-2
3
3
2
4
1
0
-1
-1
-1
2
0
-2
1
-2
-1
2
0
-1
-4
-3
-4
-5
-8
-4
-2
-5
-5
0
-1
-3
-3
-3
-3
-6
-7
-6
0
-5
1
-4
0
-4
-5
-5
-6
-5
-6
-5
-5
-2
-4
-2
-6
-4
-3
0
-3
-5
-3
-7
-6
-8
-7
-5
-3
-8
-6
-3
-5
-3
-5
2
0
-4
0
-3
-1
-1
0
-2
-2
1
-1
5
4
3
7
7
8
7
12
6
5
8
7
8
3
4
-1
1
-3
-7
-6
-10
-8
-4
-5
-4
0
-1
-2
1
1
-1
-1
-1
0
1
-1
-1
2
2
-2
1
-3
-2
-3
-2
2
7
11
7
0
-18
-41
-66
-88
-100
-100
-93
-74
-46
-22
0
16
25
31
32
29
26
18
15
12
8
10
6
3
2
3
2
2
1
-3
-5
0
-4
-5
-5
-7
-4
-7
-8
-7
-4
-10
-8
-10
-9
-12
-16
-13
-12
-15
-15
-18
-16
-21
-19
-20
-21
-23
-22
-22
-23
-25
-31
-27
-32
-37
-39
-40
-40
-41
-45
-42
-46
-42
-49
-46
-47
-46
-47
-46
-43
-42
-38
-35
-32
-26
-24
-20
-14
-14
-10
-6
-5
0
-6
0
-4
-3
-2
0
0
-3
2
-4
-1
2
1
3
2
4
5
5
8
4
2
2
-3
-4
-5
-7
-3
-3
-2
-2
-2
3
4
6
1
6
3
5
5
2
1
3
4
6
3
5
5
5
5
5
6
6
5
5
5
2
3
4
0
3
3
3
3
2
1
0
0
2
-1
-3
-5
-6
-7
-5
-5
-5
-6
-1
-5
0
-1
6
4
3
5
5
6
5
8
7
5
6
6
7
7
6
7
5
3
3
1
3
3
3
2
-3
3
2
-1
1
3
4
2
6
-1
-1
1
-1
0
3
-2
3
1
5
4
3
6
10
8
8
5
6
3
2
5
9
8
7
5
0
1
-1
4
0
2
3
3
5
6
8
6
5
7
8
3
3
7
8
6
8
6
5
4
4
3
5
5
9
9
12
5
-9
-29
-53
-75
-89
-92
-89
-77
-57
-32
-9
13
25
34
35
32
27
23
18
12
7
6
3
3
2
1
0
-3
-5
-5
-4
-3
1
-5
-2
-6
-5
-5
-4
-7
-9
-7
-8
-10
-9
-9
-10
-13
-12
-13
-13
-11
-11
-13
-15
-18
-19
-22
-26
-24
-28
-26
-26
-33
-33
-36
-38
-38
-38
-42
-43
-44
-46
-49
-49
-49
-47
-48
-48
-47
-49
-44
-40
-43
-37
-33
-26
-24
-23
-15
-13
-13
-8
-9
-7
-5
-4
-1
-1
3
6
10
9
8
7
5
7
6
3
5
5
6
4
9
4
3
2
4
1
3
0
-4
-2
-5
-4
-5
0
-4
-4
-3
-2
-6
-2
-3
-3
0
-2
0
-1
-3
-3
-1
-1
-1
2
2
0
0
0
-5
-6
-4
-5
-7
-7
-8
-6
-4
-6
-2
-5
-6
-3
-6
-6
-7
-6
-2
-4
-3
-6
-3
-7
-9
-7
-5
-4
-4
-5
-4
-7
-7
-4
-5
-6
-5
-3
-2
1
0
-6
-4
-5
-5
-5
-5
-7
-5
-7
-9
-4
-5
-5
-7
-6
-5
-4
-7
-4
-9
-6
-6
-7
-8
-6
-8
-5
-4
-5
-4
-6
-5
-4
-5
-7
-8
-6
-8
-10
-8
-13
-12
-14
-14
-18
-17
-18
-21
-17
-18
-16
-17
-15
-16
-10
-13
-10
-11
-13
-12
-15
-11
-10
-10
-9
-6
-8
-9
-6
-6
-6
-6
-5
0
2
4
-1
-10
-28
-54
-79
-94
-103
-100
-89
-72
-43
-21
-3
13
22
24
24
22
15
12
8
5
1
-2
-2
1
-3
-3
-5
-10
-7
-11
-11
-9
-8
-13
-7
-10
-8
-12
-10
-9
-9
-8
-9
-9
-11
-11
-10
-11
-13
-11
-8
-14
-16
-13
-12
-16
-14
-15
-16
-19
-18
-21
-22
-23
-21
-24
-27
-28
-28
-31
-33
-34
-35
-35
-39
-38
-42
-40
-36
-37
-36
-32
-34
-30
-29
-27
-26
-21
-14
-12
-4
-5
1
6
8
6
6
6
9
7
8
9
10
11
9
8
8
10
12
10
11
9
10
9
7
8
10
9
8
12
11
10
12
12
12
9
10
10
11
12
11
13
13
14
15
11
9
9
10
9
8
11
12
12
12
10
10
8
11
10
7
7
9
12
7
9
8
6
7
7
7
8
3
3
1
2
1
1
0
-3
1
-5
-3
-5
-5
-3
-1
-2
0
-2
-1
1
-1
4
-3
-4
-3
0
0
1
-2
-5
-5
-7
-4
-4
-7
-6
-3
-5
-7
-5
-6
-12
-10
-10
-8
-9
-8
-10
-13
-12
-13
-14
-12
-17
-15
-14
-13
-15
-14
-14
-13
-14
-16
-15
-16
-18
-21
-23
-22
-23
-25
-20
-18
-18
-15
-14
-14
-10
-9
-9
-9
-8
-9
-8
-10
-7
-6
-9
-8
-13
-7
-9
-7
-5
-6
-2
6
11
8
1
-12
-30
-59
-77
-90
-94
-84
-67
-45
-19
5
21
33
40
42
39
33
31
20
16
11
7
6
8
5
3
6
5
4
4
3
3
-1
5
2
4
3
3
0
2
0
1
2
0
-5
-8
-8
-8
-8
-11
-12
-13
-12
-12
-12
-14
-13
-18
-15
-16
-19
-18
-18
-19
-22
-24
-24
-29
-29
-30
-30
-26
-28
-27
-29
-28
-32
-33
-29
-31
-28
-27
-25
-25
-22
-20
-14
-14
-8
-10
-7
-6
2
2
7
9
13
14
14
14
18
18
17
19
20
21
19
21
20
21
22
23
20
20
21
17
18
16
15
14
12
13
12
12
14
11
14
16
16
16
12
13
12
13
12
14
14
14
16
13
14
17
16
15
16
16
14
10
9
10
11
11
15
12
13
12
10
9
8
8
7
9
8
5
5
7
10
7
7
6
5
3
6
6
4
3
4
4
4
1
3
4
-4
-3
-3
-2
0
-1
0
-3
-5
0
-4
-5
-5
-5
-5
-4
-5
-4
-1
-5
-6
-8
-8
-8
-4
-9
-10
-9
-11
-12
-13
-15
-15
-13
-18
-15
-13
-17
-12
-14
-13
-16
-18
-16
-17
-15
-16
-14
-16
-13
-16
-18
-18
-19
-20
-21
-24
-22
-23
-23
-21
-19
-20
-17
-19
-18
-18
-20
-21
-18
-17
-19
-19
-17
-18
-17
-13
-13
-13
-11
-13
-12
-12
-4
-3
-8
-22
-42
-62
-87
-103
-104
-101
-86
-65
-39
-19
1
15
20
27
25
17
16
11
6
3
-1
0
-1
0
-3
-3
0
1
-5
-5
-6
-10
-9
-9
-12
-13
-12
-12
-14
-14
-11
-15
-13
-12
-12
-14
-16
-11
-13
-14
-11
-15
-19
-16
-22
-21
-22
-22
-20
-22
-21
-25
-24
-24
-23
-30
-28
-28
-28
-28
-32
-33
-32
-37
-35
-37
-39
-37
-37
-35
-35
-31
-27
-27
-25
-20
-16
-14
-12
-9
-4
4
5
12
8
11
16
16
16
15
16
15
15
18
13
14
9
8
11
9
10
8
8
9
7
8
9
7
4
4
5
5
2
7
5
5
3
2
2
3
-1
8
6
5
5
6
3
3
4
3
5
3
4
4
4
4
4
5
2
1
2
-3
2
1
-1
0
-4
-5
-1
0
-5
-4
-3
-6
-4
-4
-5
-4
-6
-6
-5
-4
-4
-3
-6
-8
-6
-7
-8
-8
-10
-10
-10
-12
-12
-13
-8
-11
-12
-8
-13
-11
-8
-6
-9
-7
-10
-15
-13
-11
-10
-11
-6
-7
-8
-8
-11
-13
-13
-14
-16
-16
-15
-14
-14
-17
-17
-19
-19
-20
-19
-18
-21
-21
-19
-23
-22
-22
-22
-24
-22
-23
-21
-18
-20
-18
-21
-20
-20
-17
-21
-18
-14
-17
-12
-11
-13
-13
-10
-11
-11
-14
-14
-12
-14
-16
-17
-12
-13
-13
-12
-13
-15
-10
-9
-2
-2
-9
-22
-39
-64
-87
-99
-104
-96
-81
-57
-33
-7
10
19
28
26
28
24
17
13
11
10
5
2
3
2
-3
-2
-4
-5
-4
-4
0
-2
-1
4
4
0
0
0
-3
-7
-5
-7
-5
-8
-9
-9
-9
-9
-10
-15
-15
-15
-16
-16
-15
-16
-21
-21
-23
-22
-25
-25
-26
-29
-28
-29
-30
-32
-32
-34
-37
-39
-38
-36
-36
-37
-39
-39
-37
-36
-34
-32
-27
-21
-21
-17
-16
-10
-8
-3
2
3
7
12
14
13
16
11
15
12
16
16
11
16
14
15
13
12
14
12
12
12
11
11
13
11
7
8
10
11
13
11
12
14
13
11
12
12
11
11
13
13
12
11
14
13
10
9
9
6
6
4
4
4
4
5
-3
-2
-2
0
2
3
-1
3
5
-2
2
0
1
4
3
1
1
2
2
3
4
-2
-1
1
4
0
4
-3
1
-1
1
-3
-5
-1
-7
-5
-5
-4
-1
-2
-5
-2
-6
-5
-6
-5
-6
-9
-8
-7
-8
-8
-7
-4
-6
-4
-5
-9
-6
-4
-4
-7
-9
-7
-2
-5
-5
-4
-3
-5
-5
-2
-3
2
2
1
2
-2
3
4
0
-5
-6
-4
-7
-9
-8
-9
-6
-5
-7
-5
-5
-2
-3
-5
-4
-2
-2
0
-4
-3
2
0
-3
0
2
2
1
0
-3
3
9
10
12
2
-14
-37
-61
-81
-96
-97
-90
-75
-48
-26
-3
15
21
28
32
28
25
22
19
17
12
8
8
3
5
1
3
2
2
4
3
2
5
3
5
4
1
4
-1
-2
-6
-5
-2
-3
0
-4
-5
-5
-7
-7
-8
-9
-8
-9
-8
-10
-7
-8
-8
-11
-14
-13
-15
-18
-19
-20
-22
-22
-24
-28
-30
-30
-29
-30
-32
-34
-33
-32
-32
-31
-31
-28
-25
-23
-18
-17
-10
-6
2
5
7
9
9
9
13
11
14
14
13
14
14
19
17
15
13
11
12
16
13
12
15
11
12
14
12
9
8
8
9
8
7
11
7
2
4
2
-2
2
-1
7
4
3
4
6
2
5
3
5
6
3
3
2
2
3
3
-1
4
1
0
0
-2
-5
-5
-4
-6
-6
-4
-4
-4
-4
-7
-6
-6
-6
-6
-7
-6
-5
-7
-10
-7
-9
-8
-11
-7
-7
-9
-9
-11
-10
-13
-11
-9
-9
-10
-9
-4
-8
-10
-6
-5
-7
-7
-9
-10
-10
-8
-10
-8
-9
-11
-10
-6
-9
-8
-10
-7
-7
-7
-9
-9
-8
-14
-13
-11
-13
-10
-12
-15
-15
-14
-14
-18
-16
-13
-20
-19
-18
-17
-17
-20
-20
-20
-20
-24
-25
-24
-24
-20
-23
-19
-20
-19
-17
-19
-15
-16
-15
-15
-14
-12
-15
-12
-13
-15
-14
-13
-12
-11
-14
-15
-11
-11
-7
-7
-8
-17
-33
-54
-78
-97
-102
-102
-92
-72
-52
-28
-8
10
20
23
23
18
18
9
4
2
-1
4
2
2
2
1
-3
2
0
-5
-4
-5
-3
-3
-6
-4
0
-5
-2
-1
-2
-3
-4
-5
-6
-3
-2
-6
-2
-5
-6
-8
-9
-14
-15
-11
-13
-19
-18
-18
-16
-22
-22
-22
-29
-27
-30
-31
-28
-33
-32
-35
-37
-38
-39
-41
-37
-40
-40
-42
-38
-38
-37
-35
-31
-28
-23
-20
-18
-14
-13
-8
-8
-5
-2
0
6
5
8
11
11
12
14
14
11
15
11
12
13
12
14
12
10
10
8
6
10
4
5
7
6
6
6
3
4
5
6
7
3
4
3
4
3
3
0
1
0
0
0
0
-2
0
0
-2
-1
2
3
0
-4
-1
2
0
-4
-1
-2
-3
-3
-5
-6
-6
-8
-9
-10
-12
-8
-6
-11
-8
-7
-7
-5
-4
-5
-6
-9
-9
-6
-6
-8
-5
-5
-2
-4
-4
-4
-6
-7
-4
-8
-9
-6
-5
-6
-6
-6
-4
-5
-5
-9
-3
-6
-4
-7
-9
-9
-8
-9
-10
-10
-10
-9
-8
-10
-9
-9
-8
-4
-3
-5
0
3
1
0
-2
-3
1
-6
-5
-6
-7
-7
-4
-8
-7
-5
-7
-7
-7
-10
-5
-4
-3
1
2
-2
-1
1
-3
-2
-5
-3
-5
-4
-9
-8
-11
-13
-13
-12
-12
-15
-12
-10
-5
1
3
-6
-17
-34
-61
-83
-95
-99
-94
-75
-52
-26
-6
13
26
33
36
32
26
18
13
10
6
3
7
10
8
6
7
5
8
7
10
9
9
10
10
12
8
10
8
8
5
2
4
-1
-2
-3
-4
-4
-2
-4
-5
-6
-6
-7
-5
-7
-9
-8
-9
-12
-11
-17
-18
-16
-17
-19
-22
-22
-26
-31
-32
-30
-36
-35
-36
-38
-38
-36
-39
-34
-33
-29
-25
-21
-18
-16
-12
-9
-4
-5
0
1
8
9
12
13
16
15
16
16
14
14
13
14
16
16
15
16
13
13
14
8
11
9
7
8
8
8
5
0
3
1
6
2
4
1
1
-3
-1
4
4
2
4
5
6
3
5
6
6
6
5
2
4
3
6
4
5
8
7
8
6
3
2
0
3
0
-1
1
3
3
2
2
1
4
3
-1
1
2
0
2
4
0
2
2
4
2
2
4
4
4
1
-1
0
3
3
4
-1
-1
3
1
1
-5
-2
-4
-5
-7
-9
-11
-8
-6
-9
-11
-9
0
-6
-1
-5
-2
0
0
-2
3
0
-2
-1
-3
-3
2
-5
-7
-8
-7
-4
-6
-6
-6
-8
-8
-9
-9
-13
-13
-12
-13
-13
-15
-13
-9
-7
-9
-6
-4
-7
-9
-9
-9
-8
-10
-11
-10
-8
-12
-11
-8
-12
-12
-9
-13
-13
-10
-9
-6
-1
-6
-17
-35
-58
-78
-95
-104
-103
-92
-70
-40
-19
6
18
25
26
28
22
19
16
14
9
7
5
4
4
3
2
3
2
2
3
-1
-2
-1
3
-2
-6
-7
-8
-5
-6
-7
-11
-8
-8
-8
-8
-11
-9
-12
-12
-10
-12
-15
-13
-14
-17
-16
-21
-21
-19
-22
-23
-21
-25
-25
-25
-27
-29
-28
-30
-31
-32
-35
-33
-34
-37
-36
-38
-36
-34
-31
-30
-27
-25
-23
-16
-12
-10
-7
-3
1
2
4
8
6
7
12
10
9
10
9
9
8
13
10
9
8
8
5
8
6
4
3
4
7
6
4
3
3
3
5
3
4
5
2
-1
-3
0
-1
2
0
-3
-2
-4
-1
0
-2
-5
0
-2
0
0
-6
-2
-3
-4
-5
-1
-5
-2
-2
-2
0
-3
-3
0
-4
1
3
-3
-3
-4
1
-2
-7
0
-7
-9
-6
-9
-8
-8
-9
-8
-7
-8
-9
-8
-9
-13
-10
-12
-13
-15
-14
-13
-10
-14
-15
-12
-15
-13
-14
-14
-16
-16
-17
-15
-16
-13
-8
-9
-4
-3
-9
-8
-4
-2
-5
-1
-5
-4
-3
0
-5
-5
-5
-5
0
-3
-4
-10
-11
-10
-9
-11
-8
-6
-5
-4
-4
-6
-8
-7
-8
-10
-11
-14
-14
-12
-14
-13
-10
-11
-7
-8
-11
-10
-8
-7
-9
-8
-5
-4
-3
-5
-4
-6
-9
-8
-6
-9
-10
-11
-7
-7
-1
1
-6
-13
-33
-58
-81
-94
-102
-99
-80
-60
-37
-11
9
20
23
28
25
22
17
10
6
4
3
2
0
1
2
-2
-5
-5
-5
-4
-7
-12
-8
-12
-10
-11
-13
-16
-9
-11
-17
-15
-14
-15
-17
-14
-13
-14
-12
-13
-13
-12
-17
-14
-14
-16
-17
-16
-17
-19
-17
-23
-26
-25
-30
-30
-34
-35
-36
-40
-41
-43
-46
-42
-44
-48
-48
-45
-46
-45
-44
-45
-37
-34
-28
-27
-25
-17
-15
-13
-11
-7
-6
-6
-5
-2
-4
-2
1
3
-1
2
2
2
4
4
1
5
4
2
3
6
4
4
4
2
1
3
-2
1
0
-2
-2
-1
0
2
1
-2
0
2
3
4
4
5
4
5
4
5
7
10
5
6
4
4
10
8
7
6
2
4
3
3
4
3
1
5
4
5
8
6
4
3
4
2
2
-3
-6
-6
-8
-6
-7
-9
-7
-7
-7
-4
-7
-8
-6
-4
-5
-7
-6
-6
-7
-2
-4
-6
-6
-6
-8
-5
-4
-7
-4
-7
-11
-9
-8
-8
-9
-6
-5
-9
-3
-4
-6
-6
-5
-3
-3
-5
-1
-2
0
-5
-9
-7
-7
-3
-6
-4
-2
-4
-2
-2
-4
-6
-5
-5
-4
-7
-7
-6
-6
-9
-8
-9
-6
-9
-6
-6
-3
-4
0
-3
-3
0
1
-1
-2
4
1
-1
0
0
2
-2
-3
0
4
4
0
3
7
12
12
6
-12
-35
-62
-81
-97
-97
-90
-70
-49
-23
3
21
32
34
35
34
31
26
21
16
10
8
10
7
5
2
5
2
-1
2
0
-4
-5
-3
-6
-8
-5
-5
-5
-5
-5
-6
-6
-8
-7
-8
-6
-7
-10
-6
-10
-7
-11
-10
-8
-9
-10
-13
-17
-18
-18
-19
-20
-24
-24
-25
-27
-31
-30
-37
-38
-42
-45
-42
-47
-47
-45
-49
-44
-44
-44
-42
-41
-37
-31
-31
-22
-20
-15
-13
-8
0
4
6
6
7
10
14
14
15
13
15
16
15
15
16
14
15
13
11
14
14
12
14
14
14
16
13
11
12
10
11
9
10
9
11
6
5
7
7
5
4
5
6
4
3
1
4
2
3
0
8
4
3
5
7
3
1
6
3
5
8
6
8
7
10
7
9
7
7
10
10
6
7
6
8
5
7
7
6
8
4
4
2
2
0
-4
-3
0
1
-2
-1
4
-1
-5
-5
-5
-5
-4
0
-4
-3
-3
-3
-3
-5
0
-4
-3
-3
-3
-3
-4
-3
-4
-3
-4
2
-1
-4
-2
-1
1
-3
-6
-4
-2
-2
-6
-4
-7
-9
-7
-8
-7
-2
-2
-5
-5
-6
-2
-6
-3
-6
-7
-8
-5
-7
-7
-5
-6
-3
-2
-1
-1
-1
2
4
1
4
4
1
0
-2
-2
0
-5
-1
-6
-6
-6
-6
0
-1
3
4
-6
-18
-38
-63
-84
-98
-103
-97
-79
-52
-28
-4
15
24
28
29
28
24
16
16
9
7
5
3
3
-1
2
1
0
-3
-1
-7
-7
-7
-8
-9
-8
-12
-11
-12
-13
-13
-12
-17
-16
-17
-19
-20
-21
-20
-16
-18
-16
-14
-17
-17
-16
-18
-20
-20
-25
-24
-25
-25
-29
-27
-28
-33
-34
-34
-34
-38
-39
-42
-43
-44
-43
-43
-44
-41
-42
-40
-39
-39
-33
-28
-24
-24
-21
-17
-10
-9
0
-2
0
6
8
6
7
8
12
8
9
6
9
12
8
9
9
10
10
10
9
12
16
12
13
11
12
10
8
10
11
7
5
9
6
5
7
7
7
7
7
6
8
8
3
3
8
8
-1
1
3
2
4
4
4
1
-1
1
6
5
5
2
3
3
1
2
-1
2
1
1
2
4
1
5
6
5
6
8
8
11
10
10
8
6
4
3
3
5
2
0
-3
-3
-5
-3
-4
-5
-4
-5
-7
-7
-8
-7
-9
-8
-8
-9
-11
-13
-10
-9
-6
-9
-7
-6
-6
-7
-5
-7
-4
-6
-9
-9
-9
-5
-6
-5
-6
-6
-6
-9
-8
-7
-7
-9
-7
-7
-10
-10
-9
-11
-8
-9
-10
-8
-10
-13
-14
-14
-13
-19
-17
-16
-16
-15
-10
-11
-12
-13
-12
-10
-8
-10
-10
-12
-10
-7
-7
-9
-9
-10
-10
-4
-7
-5
0
-1
-2
-9
-26
-48
-72
-93
-99
-101
-91
-75
-53
-25
-5
13
24
27
28
24
19
17
7
5
0
0
-5
-7
-8
-9
-10
-10
-8
-4
-8
-7
-11
-8
-11
-8
-8
-10
-12
-9
-11
-14
-14
-14
-12
-14
-17
-16
-12
-16
-15
-14
-16
-17
-21
-24
-22
-24
-23
-28
-30
-30
-31
-34
-34
-37
-40
-39
-44
-46
-44
-48
-50
-53
-48
-52
-54
-54
-50
-49
-46
-43
-41
-37
-37
-34
-29
-25
-23
-21
-18
-18
-12
-8
-4
0
0
1
0
-2
-3
2
-5
-8
0
-3
2
0
2
4
1
4
2
2
0
3
2
-3
-2
2
0
-3
2
-3
1
-3
1
2
0
0
0
3
2
-1
0
-4
0
-3
-4
-1
0
2
-1
0
0
2
-2
-5
-5
-5
-3
-6
-4
-6
-4
-5
-5
-5
-6
-7
-6
-5
-7
-7
-11
-12
-8
-11
-11
-7
-7
-10
-9
-6
-5
-4
-2
-5
-4
-5
0
-1
1
-3
4
3
4
3
1
2
-3
0
-1
0
2
-1
1
2
-1
1
-2
2
-4
-4
-2
-4
-4
-5
-2
-5
0
-5
-6
-5
-2
-4
0
-5
-6
-6
-6
-10
-10
-10
-11
-13
-13
-11
-11
-9
-4
-6
-3
2
2
1
5
5
3
2
4
2
2
1
0
-1
-1
-2
0
0
-3
2
8
8
11
12
2
-19
-40
-65
-80
-92
-89
-77
-51
-23
-5
20
32
40
44
42
33
30
26
25
20
17
15
15
13
16
15
10
11
11
10
9
6
3
5
9
4
4
3
4
3
0
2
1
2
1
0
0
-2
-3
-3
-4
-6
-10
-9
-12
-12
-14
-10
-15
-12
-16
-17
-21
-23
-25
-29
-28
-28
-26
-26
-31
-29
-27
-30
-25
-26
-27
-28
-28
-27
-26
-25
-18
-17
-16
-12
-7
0
3
7
9
14
15
18
22
21
19
20
22
22
21
19
20
17
15
19
17
18
19
20
16
18
15
14
13
12
10
12
11
11
12
14
11
12
11
11
14
12
12
12
14
12
9
10
10
10
8
11
10
9
7
13
12
12
13
11
10
7
9
8
5
3
6
3
2
2
2
4
2
6
6
3
5
4
0
-2
-1
-1
4
2
3
3
1
3
1
0
-3
0
-4
0
-4
-5
-5
-2
-3
-6
-6
-10
-6
-3
-8
-8
-9
-6
-13
-12
-13
-12
-13
-11
-12
-12
-10
-12
-13
-10
-8
-7
-7
-7
-6
-8
-8
-10
-11
-12
-13
-12
-12
-13
-15
-15
-17
-16
-14
-15
-16
-12
-12
-12
-15
-11
-11
-9
-12
-13
-13
-10
-8
-12
-11
-12
-12
-14
-15
-15
-17
-8
-2
2
-2
-13
-27
-50
-76
-94
-106
-104
-95
-76
-52
-24
-5
13
23
25
26
25
20
13
9
6
7
8
1
2
-1
-5
-4
-6
-8
-8
-12
-8
-12
-13
-8
-8
-8
-10
-11
-15
-14
-14
-14
-14
-16
-17
-14
-19
-18
-18
-16
-17
-11
-14
-13
-19
-14
-17
-15
-18
-15
-17
-22
-27
-27
-30
-30
-33
-39
-41
-36
-41
-40
-39
-38
-42
-41
-39
-41
-40
-39
-35
-31
-26
-25
-21
-15
-10
-8
-6
-3
1
3
6
8
12
11
16
13
11
11
11
12
13
9
8
7
9
10
6
6
3
-1
2
3
4
-1
2
-2
-4
0
0
-2
-1
-3
2
4
3
2
5
4
5
5
8
7
7
7
4
2
-1
1
-4
-4
2
-4
-3
-1
3
2
-3
2
3
2
2
3
5
5
6
2
3
6
8
5
1
-2
-1
-1
0
4
1
1
4
4
2
4
0
-2
1
-5
-3
-2
-2
-4
-8
-7
-6
-7
-7
-4
-4
-4
0
1
2
-2
-2
-3
-3
-4
-7
-6
-8
-8
-5
-7
-4
3
2
1
2
3
0
0
0
-2
-1
-1
-2
0
0
-2
1
-3
-6
-3
-4
-2
-2
3
6
3
-7
-21
-41
-68
-85
-93
-90
-82
-61
-39
-14
4
18
27
33
30
31
18
15
7
7
5
-1
2
2
1
4
3
-1
0
0
-3
-4
-4
-4
-7
-5
-11
-10
-10
-10
-11
-13
-15
-11
-11
-9
-8
-12
-14
-12
-10
-10
-10
-13
-10
-12
-15
-16
-17
-17
-17
-19
-20
-27
-29
-28
-30
-33
-37
-38
-41
-43
-40
-45
-42
-43
-38
-40
-40
-39
-35
-35
-32
-33
-25
-19
-16
-15
-12
-4
-4
-5
-4
0
2
1
-1
2
6
4
2
5
8
3
6
6
3
3
1
2
2
1
-1
3
-3
-4
-1
-5
-2
-2
-1
-3
0
-2
2
1
4
-1
-2
-3
-2
-2
-2
0
1
-2
1
-1
1
4
2
3
-3
1
1
-2
-2
-3
-5
-2
-3
-2
-3
-5
0
-2
-1
1
6
6
6
4
1
-2
0
0
-2
-3
0
-5
-5
-5
-6
-4
-5
-6
-6
-9
-4
-7
-6
-8
-7
-9
-5
-6
-8
-6
-9
-7
-6
-7
-10
-9
-11
-9
-9
-14
-14
-14
-12
-16
-14
-15
-12
-12
-12
-8
-7
-9
-10
-9
-8
-9
-11
-10
-4
-6
-9
-9
-9
-9
-9
-5
-8
-7
-4
-3
1
2
-4
-15
-35
-58
-80
-95
-97
-92
-78
-57
-32
-11
10
22
31
33
30
28
19
12
9
7
4
3
3
-1
0
-1
-2
-5
-2
-5
-5
-5
-5
-6
-8
-9
-12
-11
-13
-13
-16
-17
-15
-17
-14
-18
-16
-17
-17
-18
-20
-19
-20
-23
-24
-23
-24
-26
-27
-29
-29
-33
-30
-32
-32
-35
-39
-37
-39
-37
-41
-42
-43
-41
-42
-45
-42
-44
-40
-39
-39
-32
-31
-29
-27
-24
-18
-15
-11
-6
-5
-2
3
2
3
3
6
7
7
9
7
10
11
12
11
10
12
11
12
12
10
8
9
6
4
3
4
4
5
3
4
4
6
8
5
4
7
9
8
8
5
3
3
6
3
3
4
2
6
1
2
1
-1
1
1
-4
1
4
7
4
3
5
2
6
6
3
10
6
9
3
4
8
6
9
7
8
8
9
6
5
4
5
1
4
4
0
-6
-2
-5
-3
-3
0
1
0
-2
0
-5
0
1
0
-2
-5
0
2
1
0
-3
-3
-1
-3
-4
-4
-2
-2
-5
-3
-5
-5
-9
-8
-9
-11
-5
-5
-5
-6
-4
-4
0
-2
3
3
4
5
-1
-2
1
3
1
-1
2
-2
3
2
-3
-4
-3
-3
1
-1
4
8
1
-3
-16
-40
-64
-91
-102
-106
-97
-78
-54
-29
-10
12
23
31
31
30
22
17
11
9
3
1
1
4
-1
1
0
0
2
0
0
-2
-1
0
-2
-5
-6
-9
-6
-6
-8
-9
-11
-13
-12
-13
-13
-15
-15
-14
-12
-12
-17
-15
-18
-17
-20
-20
-24
-22
-26
-26
-27
-26
-29
-31
-31
-30
-33
-35
-34
-37
-36
-35
-36
-35
-40
-37
-36
-37
-36
-35
-33
-29
-26
-25
-19
-16
-9
-4
0
0
5
6
10
10
9
11
9
10
10
9
8
5
7
7
7
6
8
6
7
5
3
5
5
8
8
7
11
13
11
14
13
16
14
16
15
11
17
13
12
14
16
15
17
15
14
12
18
13
12
14
11
12
12
12
13
15
14
14
16
14
14
20
14
13
15
14
16
13
12
8
9
12
11
11
9
8
9
6
7
8
3
6
4
3
5
5
3
3
1
3
6
9
9
7
3
1
6
6
4
1
2
1
2
1
1
3
3
1
4
-1
-2
4
-3
2
-1
-3
-5
0
-2
-5
-2
0
-1
2
-3
-1
0
-5
0
-3
-3
-5
-4
-5
-7
-9
-11
-9
-10
-10
-12
-11
-11
-14
-11
-12
-9
-9
-6
-2
-6
2
5
1
2
1
0
1
1
0
1
1
-1
-1
-2
-2
-2
-2
-6
-5
-6
-4
-2
2
-4
-10
-24
-43
-69
-89
-98
-98
-90
-73
-47
-19
0
19
27
32
32
30
23
18
10
5
4
2
0
-3
-4
-5
-5
-4
-4
-6
-5
-4
-5
-8
-7
-6
-9
-6
-6
-4
-7
-5
-5
-6
-8
-6
-8
-8
-10
-11
-12
-13
-13
-14
-12
-14
-14
-18
-21
-22
-24
-26
-28
-30
-31
-32
-37
-34
-38
-37
-39
-38
-43
-46
-41
-39
-39
-40
-36
-39
-35
-33
-29
-27
-24
-21
-13
-12
-12
-9
-4
0
0
6
7
8
10
7
9
7
8
8
9
7
6
9
6
8
6
5
9
7
6
4
4
4
4
7
6
7
5
3
5
1
2
2
0
-5
-4
-4
-3
-4
-8
-9
-7
-6
-5
-5
-7
-9
-5
-6
-5
-5
-4
0
1
0
-2
-2
-5
-5
-5
-6
-6
-6
-5
-6
-8
-10
-9
-9
-9
-13
-14
-13
-11
-10
-11
-9
-8
-8
-7
-6
-4
-5
-3
-2
-9
-9
-7
-9
-7
-11
-8
-11
-11
-8
-13
-11
-12
-10
-13
-10
-11
-11
-9
-8
-8
-5
-5
-5
-6
-7
-7
-8
-9
-9
-8
-10
-9
-7
-10
-10
-11
-7
-9
-7
-7
-6
-8
-11
-9
-9
-10
-11
-10
-7
-8
-11
-12
-13
-12
-12
-10
-14
-14
-14
-16
-18
-17
-18
-20
-23
-20
-21
-21
-20
-21
-23
-19
-21
-19
-18
-19
-17
-16
-17
-13
-14
-16
-14
-15
-13
-14
-18
-14
-14
-17
-13
-8
-4
-7
-16
-31
-51
-77
-96
-108
-107
-94
-78
-58
-33
-13
8
16
25
25
19
15
12
5
-1
-3
-5
-6
-6
-6
-10
-11
-10
-9
-12
-10
-15
-11
-9
-10
-8
-9
-7
-7
-11
-12
-13
-13
-11
-12
-11
-11
-15
-14
-13
-17
-15
-15
-15
-21
-20
-21
-22
-25
-28
-27
-28
-31
-32
-34
-37
-37
-38
-39
-38
-41
-39
-41
-37
-41
-37
-38
-42
-40
-43
-40
-37
-36
-27
-29
-24
-22
-15
-10
-12
-7
-5
0
2
2
7
10
7
8
10
9
8
7
8
7
5
4
4
7
8
6
8
10
7
10
8
9
9
8
9
5
7
5
5
3
4
4
6
3
3
3
6
7
7
9
9
14
16
16
15
20
19
20
17
15
13
12
12
13
12
11
8
9
8
9
9
9
11
9
11
10
12
10
8
7
5
9
9
12
8
7
7
10
8
9
9
12
11
12
8
3
5
4
3
1
-1
3
4
2
1
2
2
5
3
6
4
-2
4
4
3
3
5
2
1
-1
2
3
5
5
6
2
4
-1
1
-3
-9
-3
0
-4
-5
-3
-6
-6
-5
-4
-5
-6
-7
-8
-8
-9
-13
-11
-11
-8
-9
-6
-6
-6
-7
-6
-5
-5
-3
-6
-5
-4
-1
0
-2
-5
-3
-1
-2
0
-1
1
1
3
7
6
7
0
-22
-42
-72
-86
-98
-95
-91
-72
-46
-20
3
18
26
29
28
28
23
16
10
7
7
3
1
-1
1
0
-4
-2
2
0
0
0
-3
-4
-3
-2
-4
-6
-8
-9
-8
-8
-8
-10
-5
-5
-4
-7
-4
-4
-9
-8
-11
-8
-8
-9
-13
-13
-13
-17
-17
-15
-17
-15
-19
-20
-27
-27
-29
-28
-30
-32
-32
-32
-33
-30
-32
-34
-32
-30
-28
-28
-23
-22
-17
-17
-11
-9
0
4
8
5
8
11
11
15
17
18
18
20
19
18
16
19
22
22
20
19
18
18
20
15
13
11
11
15
11
14
13
13
15
14
10
14
11
8
8
5
4
5
4
5
8
4
8
9
6
9
11
13
9
7
8
10
6
4
5
0
2
-1
-3
-3
-2
-2
1
0
0
2
3
2
0
2
-2
-2
2
-3
4
0
3
5
1
6
2
5
3
4
3
-3
0
-1
-3
0
-5
-1
-5
-5
-4
-7
-7
-6
-6
-6
-7
-5
-7
-8
-8
-9
-12
-8
-9
-7
-9
-5
-4
-4
-5
-6
-7
-8
-13
-10
-12
-10
-10
-11
-10
-9
-9
-6
-9
-8
-13
-13
-15
-14
-19
-17
-19
-18
-21
-23
-20
-25
-19
-18
-17
-20
-16
-16
-18
-14
-17
-18
-19
-16
-15
-15
-16
-19
-17
-19
-18
-17
-16
-16
-17
-14
-15
-15
-11
-7
-12
-21
-34
-59
-80
-97
-109
-104
-95
-78
-53
-29
-8
8
17
22
23
23
14
12
8
7
5
2
2
0
-2
0
-3
-7
-9
-6
-10
-10
-6
-8
-8
-11
-10
-12
-13
-16
-14
-15
-12
-17
-16
-10
-13
-14
-13
-16
-16
-16
-20
-21
-20
-23
-25
-22
-20
-21
-25
-25
-28
-30
-33
-31
-38
-40
-40
-47
-45
-46
-48
-52
-53
-51
-51
-52
-48
-49
-46
-42
-40
-36
-37
-35
-29
-27
-23
-21
-18
-14
-15
-11
-7
-9
-4
-6
-3
-2
0
2
0
3
1
6
4
2
-3
-1
1
2
5
4
4
3
2
4
-1
1
1
1
1
-2
-3
-6
-4
-5
-8
-6
-7
-5
-4
-5
-8
-4
-6
-7
-6
-5
-4
-6
-5
-6
-9
-6
-8
-6
-9
-6
-5
-8
-9
-5
-5
2
3
3
4
4
4
4
3
3
1
1
1
-2
-4
-7
-6
-6
-9
-8
-11
-8
-8
-9
-8
-10
-10
-9
-11
-13
-12
-11
-10
-13
-8
-9
-9
-8
-13
-11
-8
-8
-10
-10
-9
-9
-9
-6
-8
-10
-11
-10
-11
-11
-11
-14
-9
-10
-11
-12
-13
-9
-12
-11
-8
-7
-7
-4
-8
-8
-7
-7
-11
-9
-8
-6
-6
-6
-3
0
-5
0
0
-2
1
-1
-3
1
-3
0
0
-1
4
1
0
-3
-2
-2
0
2
3
8
13
6
-4
-23
-47
-71
-89
-94
-91
-76
-53
-28
0
17
34
40
44
43
37
36
27
24
19
17
15
14
15
17
17
18
19
20
17
15
13
13
16
11
11
9
8
9
8
10
9
6
6
6
3
5
6
4
3
3
1
4
1
1
-3
0
0
-3
-6
-5
-9
-10
-14
-17
-19
-15
-20
-22
-24
-20
-28
-25
-28
-25
-26
-26
-26
-23
-21
-19
-19
-14
-11
-12
-7
-2
1
4
5
8
10
15
18
20
20
21
26
23
24
24
28
28
22
16
16
13
16
17
17
15
13
15
13
12
12
12
12
12
14
13
12
13
10
10
11
10
10
10
6
8
11
12
7
13
11
12
13
12
12
13
13
12
10
9
11
7
9
7
6
6
7
7
5
6
2
3
1
-4
-7
-8
-11
-16
-25
-30
-36
-36
-40
-42
-45
-45
-49
-53
-55
-57
-55
-55
-54
-52
-51
-47
-42
-42
-41
-37
-39
-37
-34
-34
-34
-35
-32
-28
-24
-22
-25
-23
-24
-23
-23
-21
-23
-23
-26
-27
-28
-26
-26
-26
-26
-26
-23
-24
-25
-27
-31
-26
-29
-28
-31
-29
-32
-29
-28
-28
-28
-29
-29
-30
-30
-31
-27
-27
-22
-21
-25
-17
-16
-17
-17
-13
-13
-10
-10
-13
-10
-9
-6
-9
-9
-5
-6
-1
-3
-2
-4
0
8
6
4
-5
-22
-41
-66
-85
-95
-93
-84
-66
-42
-16
6
20
29
32
30
30
27
20
18
14
13
14
12
12
11
12
13
10
12
12
14
15
15
15
15
17
14
15
15
15
16
17
15
16
15
15
15
16
13
13
16
12
9
11
10
10
10
9
6
3
6
4
3
3
-2
-1
-5
-3
-10
-9
-10
-13
-17
-17
-19
-18
-19
-18
-22
-18
-17
-12
-10
-7
-4
4
4
11
14
16
19
22
24
29
32
32
29
32
28
29
25
25
21
23
22
22
20
20
21
17
15
18
16
17
17
17
18
17
16
16
16
16
15
12
14
16
16
15
13
13
14
14
12
11
8
10
12
9
7
9
13
11
7
10
9
9
10
6
7
10
9
8
6
7
6
5
6
8
7
4
6
8
3
4
4
0
2
1
-1
-1
-2
-3
-4
-5
-4
-1
-3
-1
-7
-3
-2
-3
-1
-3
-6
-5
0
-5
-7
-7
-5
-5
-3
-5
-6
-5
-4
-4
-5
-7
-7
-5
-6
-6
-8
-6
-7
-6
-8
-9
-10
-9
-10
-12
-13
-11
-12
-14
-15
-14
-12
-10
-12
-13
-12
-13
-13
-16
-19
-22
-23
-22
-22
-20
-21
-18
-14
-16
-15
-14
-16
-14
-17
-13
-13
-11
-15
-11
-14
-14
-14
-13
-13
-15
-15
-12
-14
-8
-5
-8
-10
-24
-40
-68
-90
-104
-110
-101
-87
-69
-44
-21
2
12
18
19
19
14
10
6
4
-3
0
-6
-9
-7
-6
-9
-9
-11
-11
-13
-14
-12
-15
-16
-17
-19
-17
-20
-16
-18
-19
-16
-21
-21
-21
-23
-23
-25
-20
-21
-20
-22
-21
-18
-17
-17
-20
-25
-24
-22
-28
-26
-29
-33
-32
-36
-40
-42
-44
-44
-47
-46
-49
-46
-47
-49
-46
-46
-44
-44
-40
-35
-19
0
14
27
38
44
51
56
58
56
56
55
56
57
54
58
54
49
44
33
25
17
8
-4
-15
-22
-23
-20
-27
-27
-25
-24
-20
-23
-25
-24
-25
-24
-25
-21
-23
-21
-20
-15
-9
-8
-5
1
-1
1
3
4
5
4
3
3
8
12
12
14
17
17
18
16
16
14
20
20
19
15
16
20
21
21
22
22
23
25
23
23
23
25
23
25
24
24
20
22
19
16
17
13
15
13
12
12
10
10
9
7
9
5
6
5
3
6
8
6
5
5
4
6
6
7
6
3
6
4
3
2
4
6
5
5
4
5
7
3
2
-3
-4
0
-6
-5
-6
-4
-4
-7
-6
-8
-8
-9
-11
-11
-11
-13
-15
-13
-16
-16
-19
-19
-18
-17
-21
-17
-13
-12
-12
-8
-9
-9
-9
-8
-8
-10
-12
-12
-12
-13
-15
-13
-15
-14
-13
-12
-15
-12
-11
-6
-8
-16
-28
-49
-73
-99
-112
-115
-106
-93
-67
-41
-16
1
13
18
22
15
14
11
3
-2
-2
-5
-7
-8
-9
-8
-6
-7
-7
-5
-9
-7
-10
-14
-16
-13
-15
-18
-17
-15
-12
-16
-17
-15
-16
-18
-20
-19
-21
-21
-19
-16
-22
-22
-23
-24
-24
-27
-29
-28
-28
-31
-33
-36
-37
-39
-39
-38
-40
-40
-42
-43
-45
-46
-47
-50
-52
-51
-53
-56
-49
-48
-52
-46
-42
-43
-43
-40
-45
-39
-39
-45
-52
-61
-57
-53
-48
-47
-48
-45
-45
-44
-48
-46
-47
-44
-41
-38
-41
-40
-39
-38
-39
-41
-40
-40
-40
-40
-40
-41
-40
-38
-38
-35
-35
-34
-32
-34
-33
-34
-31
-28
-24
-23
-24
-18
-21
-20
-19
-14
-15
-13
-11
-13
-11
-8
-8
-10
-7
-4
-4
0
0
0
1
3
3
4
5
6
6
7
6
4
4
2
4
3
6
6
6
4
3
4
5
7
6
7
6
9
8
10
12
12
14
10
12
11
10
11
12
10
7
9
8
9
9
12
10
11
11
16
13
14
15
16
16
13
16
13
16
15
13
14
13
10
14
14
13
13
14
14
14
14
13
11
10
10
7
9
8
8
6
5
8
5
6
4
4
4
4
4
4
9
9
12
14
12
12
13
12
12
11
15
16
16
17
19
19
18
21
20
18
15
17
15
22
23
24
17
2
-21
-45
-68
-81
-84
-78
-62
-44
-16
9
25
35
39
39
40
35
27
24
23
20
16
16
11
12
9
8
3
3
5
7
7
7
7
6
7
4
1
2
4
2
2
0
0
1
3
-3
-9
-8
-11
-8
-8
-9
-10
-9
-9
-13
-12
-13
-14
-13
-13
-12
-15
-15
-16
-20
-23
-23
-27
-25
-28
-28
-31
-33
-31
-31
-32
-30
-28
-29
-33
-25
-22
-20
-17
-16
-13
-8
-4
3
5
3
9
11
15
15
16
18
18
17
16
21
19
19
19
17
18
19
19
17
18
17
16
13
14
16
11
16
14
16
13
11
12
10
11
11
11
10
11
12
11
12
11
9
9
7
5
6
10
5
10
3
5
8
6
2
4
3
3
3
0
1
3
5
6
4
7
2
5
2
-1
-1
-5
-5
-5
-4
-5
-5
-5
-6
-8
-8
-8
-9
-8
-10
-7
-7
-7
-6
-7
-7
-6
-7
-6
-9
-4
-6
-6
-7
-9
-7
-8
-8
-8
-6
-7
-5
-4
-3
-1
-4
-4
-3
-4
-3
-7
-6
-6
-6
-5
-7
-8
-8
-9
-9
-6
-11
-13
-10
-12
-7
-11
-8
-9
-7
-9
-9
-10
-10
-13
-13
-13
-15
-16
-16
-16
-19
-20
-20
-23
-21
-22
-20
-16
-14
-14
-17
-14
-10
-10
-10
-11
-14
-12
-13
-12
-14
-11
-11
-8
-10
-8
-6
-7
-8
-7
-7
-4
1
1
-4
-14
-31
-51
-77
-94
-103
-99
-89
-67
-45
-22
-1
15
28
30
30
23
21
10
8
6
3
1
3
2
4
-1
0
-1
0
-4
-5
-3
-5
-4
-6
-6
-5
-6
-11
-10
-11
-10
-9
-9
-9
-7
-3
-5
-9
-10
-9
-8
-13
-12
-16
-12
-17
-15
-20
-18
-21
-22
-22
-29
-33
-30
-29
-32
-33
-34
-39
-39
-39
-41
-40
-41
-41
-43
-43
-43
-43
-37
-37
-30
-31
-27
-25
-18
-14
-10
-7
-5
0
2
8
8
5
10
8
9
8
9
8
5
7
8
3
1
3
0
2
3
6
2
-1
1
1
2
-4
-2
-5
-8
-8
-2
3
9
12
18
24
26
28
30
31
33
34
36
39
39
39
39
38
39
41
40
41
43
45
47
48
46
49
52
48
47
44
43
39
41
36
32
32
31
28
26
25
23
23
22
23
23
24
23
20
18
16
15
15
12
13
10
10
10
8
5
5
2
1
0
-2
-4
-5
-4
-7
-8
-7
-11
-7
-10
-14
-16
-15
-16
-18
-20
-20
-23
-19
-21
-26
-21
-23
-21
-21
-23
-20
-25
-21
-20
-20
-19
-20
-21
-20
-18
-20
-19
-18
-18
-19
-24
-22
-22
-28
-29
-28
-26
-25
-26
-23
-22
-22
-21
-19
-19
-21
-18
-14
-16
-18
-16
-17
-16
-17
-14
-15
-12
-14
-13
-17
-12
-10
-6
-8
-20
-35
-61
-82
-106
-113
-110
-102
-82
-59
-35
-17
0
11
16
15
12
8
3
-2
-6
-7
-7
-4
-9
-10
-11
-13
-14
-14
-19
-16
-17
-17
-16
-20
-17
-18
-18
-20
-19
-21
-20
-20
-22
-23
-23
-21
-23
-21
-20
-21
-19
-22
-23
-23
-25
-29
-24
-25
-27
-29
-30
-30
-30
-32
-39
-39
-42
-43
-44
-46
-51
-55
-55
-57
-56
-60
-67
-70
-69
-75
-73
-70
-66
-66
-64
-62
-62
-54
-47
-46
-42
-43
-40
-43
-37
-30
-24
-25
-24
-23
-18
-18
-16
-18
-16
-22
-20
-21
-22
-24
-23
-24
-29
-25
-25
-21
-19
-14
-13
-14
-12
-12
-14
-13
-9
-7
-4
0
7
7
9
11
11
16
14
14
17
16
13
16
16
16
20
17
18
17
20
22
24
21
17
20
19
17
18
16
11
15
12
9
12
8
11
11
5
2
3
4
4
5
7
11
9
12
12
9
6
7
9
12
9
13
14
13
5
4
6
6
9
7
11
16
18
17
18
20
17
23
18
18
18
17
16
14
16
18
17
15
20
15
13
13
12
11
12
12
13
13
12
14
10
10
7
10
8
8
6
8
6
4
3
3
7
8
8
5
6
8
8
5
6
7
7
7
6
4
8
6
5
2
8
5
5
7
9
9
17
19
21
15
2
-21
-49
-70
-84
-88
-81
-65
-44
-19
3
19
33
38
38
33
27
24
17
10
9
10
10
5
7
6
3
4
-1
1
-3
1
-5
1
-2
-5
-5
-4
-10
-8
-8
-11
-8
-10
-13
-13
-8
-12
-13
-14
-11
-15
-6
-11
-14
-20
-19
-18
-15
-17
-18
-20
-18
-21
-25
-27
-31
-28
-36
-35
-36
-38
-39
-41
-41
-41
-40
-38
-34
-35
-36
-34
-30
-30
-27
-26
-22
-14
-11
-12
-7
-5
-1
4
5
8
9
11
11
10
14
12
9
12
13
11
12
10
7
9
8
10
7
6
5
6
8
10
7
6
5
3
6
0
1
4
-1
0
1
0
0
-2
1
2
2
0
2
3
-1
0
-3
-5
-5
-6
-6
-2
-7
-8
-8
-6
-7
-7
-5
-3
-3
-2
-4
-4
-6
-5
-9
-7
-9
-7
-7
-10
-7
-6
-11
-7
-8
-6
-5
-7
-9
-4
-4
-6
-8
-7
-8
-8
-4
-8
-8
-6
-5
-5
-7
-9
-8
-11
-12
-10
-10
-10
-13
-13
-13
-12
-13
-14
-10
-9
-9
-11
-13
-9
-9
-10
-11
-13
-8
-11
-11
-12
-11
-7
-4
-11
-11
-8
-9
-10
-11
-11
-13
-12
-15
-15
-17
-15
-14
-13
-12
-16
-12
-15
-12
-10
-11
-11
-9
-7
-7
-8
-9
-6
-11
-12
-12
-14
-13
-10
-11
-10
-8
-10
-11
-14
-13
-8
-5
-4
-13
-29
-50
-73
-94
-104
-107
-99
-81
-59
-33
-10
10
19
28
27
25
20
15
9
8
3
-1
-2
-4
-6
-9
-8
-8
-11
-11
-11
-13
-12
-15
-17
-17
-14
-12
-15
-17
-15
-15
-17
-14
-12
-15
-15
-14
-16
-17
-19
-18
-16
-18
-18
-19
-19
-18
-26
-29
-26
-24
-29
-29
-31
-29
-31
-35
-35
-40
-39
-40
-43
-44
-44
-42
-41
-45
-45
-42
-38
-31
-27
-26
-22
-21
-14
-13
-5
3
8
12
18
18
22
27
30
27
29
28
27
25
26
28
27
23
24
23
24
21
24
19
21
18
16
19
16
17
20
16
22
21
24
26
24
25
29
28
31
31
33
35
35
37
33
36
36
34
34
33
33
32
28
23
19
20
22
21
16
15
16
13
13
15
16
15
15
18
19
17
16
13
12
16
11
15
16
18
19
16
17
17
17
16
18
16
17
14
11
12
9
7
6
7
6
2
4
6
3
3
4
1
1
2
1
-4
-1
2
-2
-2
-3
-5
-7
-6
-6
-5
-6
-7
-9
-8
-7
-7
-9
-7
-8
-11
-11
-14
-13
-14
-17
-14
-14
-14
-16
-17
-20
-19
-22
-24
-22
-27
-22
-22
-21
-21
-20
-18
-16
-19
-22
-21
-19
-20
-19
-19
-17
-16
-16
-15
-16
-18
-16
-19
-18
-16
-17
-14
-11
-11
-11
-5
-11
-24
-43
-64
-91
-106
-109
