# ASI test file format
# {"c261c5a084f8c6b6":{"device ID": "c261c5a084f8c6b6","comments": " 60 minutes run, followed by 5x20 sec strides. Fabric rinsed by water before. Saturation at the beginning.","keywords": "FieldWiz, Version 1, Run","firmware version": "0.6.3","device": "FieldWiz + T-shirt version 2","sampling rate": 250,"resolution": "[16-bit]","date": "2020-02-05","column": ["A1","ECG"],"sensor": ["RAW, ECG"],"label": ["ECG"]}
}
# EndOfHeader
-37
315
1044
1533
1745
1844
1890
1911
1919
1928
1928
1933
1931
1933
1931
1932
1932
1931
1932
1932
1933
1930
1930
1932
1932
1928
1933
1931
1932
1932
1930
1932
1930
1929
1934
1932
1929
1932
1928
1932
1929
1932
1933
1930
1929
1930
1930
1930
1927
1929
1928
1932
1931
1929
1929
1927
1927
1930
1928
1930
1929
1929
1928
1930
1931
1930
1927
1930
1928
1927
1929
1926
1929
1927
1928
1927
1927
1925
1927
1919
1902
1881
1862
1843
1824
1808
1791
1775
1758
1744
1725
1709
1693
1679
1663
1649
1634
1621
1603
1588
1574
1561
1547
1528
1517
1500
1487
1478
1460
1447
1431
1417
1408
1397
1377
1366
1356
1343
1327
1317
1303
1289
1277
1267
1252
1242
1232
1218
1204
1193
1184
1169
1162
1147
1138
1127
1113
1105
1095
1081
1071
1060
1052
1041
1031
1022
1011
1002
991
981
973
965
954
941
934
925
918
907
899
889
880
869
865
851
847
836
827
819
807
803
793
784
777
770
762
755
746
738
732
721
717
709
701
694
685
683
676
666
657
651
644
641
632
626
619
611
606
597
594
588
583
574
568
563
558
552
545
540
534
528
523
518
510
505
502
493
491
484
479
473
467
464
458
452
449
445
440
437
431
425
419
416
413
409
404
397
392
389
384
381
377
373
368
364
362
358
353
348
348
344
336
331
327
325
319
320
316
313
309
304
302
299
291
291
287
285
282
277
276
272
269
266
261
261
258
253
252
248
246
243
239
235
233
235
231
228
223
221
219
218
214
209
211
207
204
201
199
198
195
191
188
187
186
183
181
181
177
175
171
170
171
167
165
164
160
161
157
156
153
152
153
148
148
147
145
142
140
135
136
137
136
133
132
128
127
125
125
124
120
119
119
114
116
115
113
110
110
109
107
105
106
102
102
102
96
99
98
97
97
95
92
92
90
88
89
88
85
86
83
84
80
81
77
78
79
76
76
75
76
72
72
70
69
67
70
66
67
66
66
64
66
64
62
61
61
57
59
59
56
55
56
54
52
50
52
53
52
48
51
47
46
49
46
46
44
45
44
45
44
44
41
42
41
41
40
39
40
38
33
37
35
38
36
34
32
32
31
34
30
32
30
33
29
31
26
32
29
27
28
28
29
27
25
24
24
25
23
25
24
23
21
21
20
23
22
21
20
21
19
18
20
15
19
17
18
17
15
14
14
15
15
15
15
14
15
16
13
11
15
13
10
13
13
11
11
13
11
10
9
10
11
8
9
8
8
8
8
8
7
8
9
7
8
8
4
7
6
5
3
8
7
6
6
6
4
4
6
5
3
6
3
5
3
2
3
3
3
2
1
0
3
2
1
4
1
0
1
-2
1
-1
1
0
-2
-2
-4
-1
-4
1
-3
-2
-1
-3
-2
-1
-1
0
-3
-2
-4
-6
-6
-4
-4
-4
-4
-3
-4
-4
-4
-4
-7
-4
-4
-4
-5
-8
-7
-9
-8
-7
-5
-7
-9
-8
-5
-4
-6
-6
-9
-7
-5
-7
-9
-8
-9
-7
-9
-8
-7
-6
-8
-9
-7
-8
-6
-9
-10
-8
-8
-9
-8
-9
-6
-8
-9
-9
-9
-9
-9
-10
-9
-11
-9
-8
-12
-11
-10
-8
-9
-11
-8
-7
-9
-13
-9
-10
-13
-11
-9
-8
-10
-13
-9
-10
-11
-13
-11
-10
-12
-11
-13
-12
-13
-10
-10
-15
-15
-11
-12
-13
-13
-14
-12
-13
-10
-11
-12
-11
-14
-13
-12
-11
-12
-12
-10
-12
-12
-13
-12
-13
-12
-10
-13
-12
-12
-14
-13
-14
-15
-14
-10
-12
-12
-13
-10
-9
-13
-12
-13
-13
-11
-13
-14
-37
327
1044
1532
1749
1845
1893
1910
1922
1929
1928
1930
1930
1931
1933
1933
1932
1933
1934
1933
1936
1932
1934
1933
1934
1932
1932
1934
1931
1932
1932
1931
1932
1932
1932
1933
1931
1930
1927
1932
1930
1926
1930
1932
1930
1934
1932
1932
1932
1930
1933
1932
1928
1927
1931
1927
1931
1930
1931
1931
1927
1929
1926
1928
1927
1928
1926
1927
1930
1928
1927
1927
1929
1927
1927
1927
1927
1925
1919
1904
1884
1868
1846
1830
1811
1795
1776
1762
1746
1729
1714
1700
1682
1667
1649
1638
1622
1604
1590
1578
1566
1550
1535
1521
1508
1492
1479
1465
1451
1437
1423
1412
1398
1386
1368
1359
1344
1333
1321
1308
1296
1284
1271
1260
1246
1235
1223
1212
1201
1189
1178
1166
1156
1145
1133
1122
1110
1100
1090
1080
1070
1059
1049
1038
1027
1018
1011
997
992
982
970
961
952
942
931
926
914
906
900
888
880
872
861
854
845
839
827
819
812
804
795
786
779
773
763
755
749
742
731
722
717
713
703
696
690
682
672
669
660
655
648
641
636
626
623
616
608
601
595
590
584
580
572
566
558
554
550
542
538
531
525
519
516
510
503
498
496
489
484
481
472
469
464
459
454
448
445
439
434
431
424
421
416
412
407
404
398
396
393
386
382
379
375
370
365
361
356
356
351
346
342
341
335
332
326
324
322
318
314
310
306
301
300
298
296
293
287
283
280
278
276
272
269
267
263
260
257
254
249
247
246
243
240
237
234
230
228
226
223
223
216
217
213
210
209
207
204
202
199
199
195
192
190
192
186
185
181
182
177
176
176
172
170
167
165
163
164
164
159
155
157
156
150
150
150
146
144
144
139
141
137
136
133
134
131
133
129
128
125
124
124
121
119
115
118
114
113
114
112
111
106
109
105
106
104
104
99
100
99
100
96
95
96
91
92
91
92
89
90
86
87
85
84
82
82
80
80
80
80
76
74
74
71
71
72
71
71
70
68
69
66
66
64
66
62
63
62
60
60
60
58
58
57
54
53
56
54
51
51
52
49
46
50
48
50
46
46
49
46
46
43
43
41
44
43
42
41
40
38
40
40
37
37
36
40
38
37
36
32
35
31
33
35
32
32
32
31
33
29
30
28
29
28
25
28
27
28
27
24
25
23
24
22
26
24
23
20
22
21
22
20
19
19
20
21
19
17
17
18
17
16
17
16
18
16
17
16
14
15
17
15
15
15
14
14
16
11
13
14
14
13
14
11
12
12
11
12
9
9
9
9
9
10
8
10
10
7
7
7
9
6
6
5
6
5
5
5
8
3
6
6
5
7
3
3
6
3
3
4
4
3
7
3
1
2
3
3
2
2
1
3
3
-3
1
1
4
-4
2
1
-3
0
2
1
-2
4
-3
1
-2
-3
-2
-2
-1
-1
-3
0
-5
-3
0
-2
0
-3
-3
-1
-8
-2
-5
-5
-3
-6
-4
-4
-6
-7
-4
-6
-5
-5
-9
-5
-5
-6
-5
-5
-6
-5
-8
-9
-7
-7
-5
-6
-9
-6
-7
-8
-6
-7
-7
-8
-6
-8
-8
-7
-4
-8
-6
-7
-9
-9
-9
-9
-10
-7
-8
-9
-9
-10
-7
-11
-10
-9
-10
-8
-8
-10
-8
-10
-10
-8
-9
-8
-7
-8
-9
-10
-10
-9
-11
-10
-10
-11
-8
-9
-13
-11
-8
-10
-12
-9
-12
-10
-10
-12
-11
-10
-12
-10
-12
-9
-10
-13
-12
-13
-11
-13
-9
-12
-9
-8
-12
-11
-12
-12
-13
-11
-12
-12
-13
-13
-12
-14
-12
-10
-14
-10
-15
-15
-14
-10
-13
-10
-12
-12
-11
-11
-15
-12
-13
-10
-14
-11
-12
-10
-13
-13
-13
-14
-12
-13
-12
-13
-12
-15
-13
-13
-12
-13
-15
-13
-13
-12
-11
-14
-12
-13
-15
-15
-12
-11
-14
-12
-13
-12
-14
-13
-13
-14
-14
-11
-14
-13
-15
-14
-13
-15
-12
-14
-14
-15
-15
-14
-15
-12
-13
-17
-17
-13
-18
-17
-13
-17
-17
-15
-13
-14
-14
-13
-12
-15
-16
-16
-15
-14
-15
-13
-14
-15
-14
-14
-12
-13
-16
-13
-15
-16
-14
-12
-17
-13
-15
-13
-13
-15
-14
-15
-16
-14
-12
-14
-17
-14
-14
-15
-17
-14
-14
-13
-15
-15
-14
-16
-14
-17
-14
-14
-14
-15
-17
-17
-13
-16
-14
-17
-13
-15
-16
-17
-19
-17
-15
-15
-14
-13
-14
-17
-14
-15
-12
-14
-16
-15
-12
-15
-14
-16
-15
-16
-14
-19
-16
-14
-14
-15
-14
-15
-14
-15
-14
-16
-16
-14
-13
-18
-14
-16
-17
-16
-16
-17
-16
-16
-15
-14
-18
-15
-16
-17
-16
-16
-15
-17
-17
-17
-17
-16
-16
-14
-14
-16
-17
-15
-15
-14
-18
-16
-16
-16
-17
-16
-17
-16
-17
-15
-19
-15
-16
-15
-16
-15
-17
-15
-16
-17
-15
-15
-17
-14
-12
-17
-15
-14
-16
-15
-18
-15
-17
-16
-15
-19
-17
-17
-20
-16
-16
-17
-17
-17
-15
-13
-16
-18
-17
-17
-17
-15
-19
-16
-17
-16
-16
-15
-17
-17
-17
-16
-17
-17
-16
-17
-15
-16
-15
-15
-17
-16
-15
-16
-19
-17
-17
-16
-15
-16
-19
-16
-16
-16
-15
-17
-16
-17
-16
-17
-17
-16
-17
-16
-16
-14
-14
-17
-17
-15
-16
-17
-17
-2
246
540
771
925
1016
1082
1115
1137
1137
1126
1117
1110
1103
1089
1068
1053
1043
1034
1018
1001
989
978
971
956
936
924
920
910
894
877
865
860
852
841
822
813
808
801
787
771
763
755
749
740
727
716
715
706
697
682
673
665
659
654
639
635
628
624
616
603
594
591
588
579
563
560
555
550
543
532
527
521
517
507
499
493
491
485
480
470
463
462
457
450
443
436
434
432
423
416
411
409
406
397
389
385
382
378
373
367
360
359
358
352
345
339
336
335
332
323
320
317
313
311
305
302
298
298
294
284
284
280
278
276
269
263
262
259
257
252
248
246
247
241
234
233
231
229
226
221
219
218
215
211
208
204
203
201
197
191
191
190
191
185
184
182
179
177
171
169
170
172
164
168
161
158
157
156
153
150
145
147
146
145
138
137
136
134
131
131
129
128
127
126
123
119
118
118
115
114
112
111
111
107
108
105
106
103
102
101
97
98
95
95
94
93
92
87
88
87
84
83
83
81
80
80
79
80
76
74
74
75
73
69
72
67
69
66
67
66
61
63
62
62
58
59
60
60
57
56
53
54
55
51
50
51
48
52
52
49
47
45
49
46
42
43
46
45
42
39
41
40
40
38
38
35
36
37
36
35
32
35
34
34
32
29
31
30
31
29
27
27
29
27
25
25
26
26
25
25
22
24
22
20
21
22
22
21
20
18
18
21
19
19
18
20
18
15
16
16
14
16
15
16
14
15
16
13
12
12
14
11
13
12
11
11
11
11
9
7
7
8
7
8
8
8
8
6
3
5
6
8
8
8
4
6
4
6
6
5
5
5
2
3
3
3
3
3
3
5
4
4
-1
1
2
-1
0
2
3
0
-1
0
1
1
-5
-5
-3
-2
-3
0
-3
-5
-2
-1
-3
-4
-2
-2
-1
-5
-1
-5
-5
-8
-7
-5
-4
-4
-5
-6
-4
-3
-4
-4
-4
-8
-5
-8
-7
-8
-8
-8
-6
-6
-9
-8
-6
-7
-4
-9
-6
-8
-8
-6
-8
-8
-9
-6
-7
-11
-9
-7
-11
-8
-8
-11
-10
-5
-9
-8
-9
-10
-8
-9
-10
-11
-10
-11
-10
-10
-10
-11
-10
-12
-13
-10
-10
-12
-10
-10
-10
-10
-11
-9
-11
-12
-10
-13
-10
-11
-12
-12
-8
-11
-12
-11
-13
-10
-12
-11
-11
-12
-11
-12
-12
-13
-12
-12
-13
-13
-9
-12
-11
-11
-13
-17
-10
-12
-13
-12
-10
-11
-13
-13
-13
-10
-13
-12
-10
-13
-12
-14
-15
-13
-13
-14
-13
-15
-12
-14
-17
-17
-12
-15
-14
-15
-12
-13
-13
-12
-13
-15
-15
-10
-18
-15
-13
-15
-12
-12
-13
-13
-15
-15
-16
-14
-13
-14
-14
-15
-16
-17
-14
-13
-13
-12
-15
-12
-14
-14
-13
-15
-14
-13
-14
-17
-14
-15
-16
-17
-14
-14
-12
-14
-16
-14
-13
-13
-16
-14
-17
-15
-12
-16
-15
-14
-14
-15
-15
-14
-16
-14
-15
-15
-15
-14
-15
-15
-14
-16
-15
-14
-15
-14
-14
-12
-14
-16
-15
-14
-13
-16
-16
-17
-15
-17
-15
-17
-15
-15
-14
-17
-14
-16
-13
-15
-15
-14
-17
-16
-14
-14
-16
-14
-14
-15
-18
-12
-14
-14
-17
-15
-13
-16
-15
-15
-15
-16
-18
-16
-16
-15
-16
-14
-16
-15
-16
-15
-14
-17
-13
-19
-17
-14
-17
-16
-17
-15
-16
-16
-15
-17
-12
-17
-18
-19
-13
-13
-18
-15
-17
-14
-16
-14
-16
-17
-17
-16
-13
-15
-17
-13
-15
-14
-17
-14
-16
-17
-15
-17
-16
-17
-17
-13
-17
-16
-16
-17
-15
-17
-16
-16
-17
-16
-16
-15
-14
-18
-14
-17
-18
-20
-17
-16
-17
-16
-19
-16
-17
-14
-16
-17
-16
-21
-17
-17
-18
-16
-17
-17
-16
-18
-16
-17
-16
-16
-17
-14
-17
-16
-16
-15
-16
-18
-17
-16
-14
-17
-15
-15
-17
-16
-19
-16
-17
-17
-17
-14
-17
-17
-18
-16
-12
-15
-16
-16
-17
-17
-15
-15
-18
-14
-14
-16
-19
-17
-17
-16
-15
-78
-125
-142
-148
-150
-157
-155
-153
-154
-155
-157
-154
-156
-157
-154
-157
-154
-153
-155
-154
-156
-154
-153
-158
-157
-157
-155
-154
-157
-156
-155
-154
-156
-157
-154
-155
-156
-158
-156
-158
-157
-157
-158
-156
-156
-156
-157
-156
-158
-159
-158
-157
-158
-161
-158
-160
-157
-156
-156
-124
-73
-44
-21
-4
14
24
19
23
28
35
42
33
32
36
41
44
34
30
37
35
40
28
27
24
31
28
11
9
9
16
15
0
-2
-3
6
-1
-13
-14
-8
4
2
-5
-9
-4
4
6
-4
-9
-5
1
3
-8
-9
-3
0
0
-5
-7
-11
5
-3
-9
-16
-5
-3
1
-10
-16
-25
-24
-21
-22
-17
-10
-6
-1
-8
-13
-7
2
-1
-9
-14
-7
1
5
-12
-12
-8
1
2
-12
-15
-4
5
-3
-13
-13
-7
-2
-7
-19
-22
-14
-11
-7
-16
-16
-10
-4
-4
-13
-17
-14
-7
-7
-14
-17
-7
-8
-5
-12
-15
-13
-6
-3
-17
-16
-10
-5
-2
-11
-21
-27
-42
-42
-39
-32
-19
-9
0
-11
-12
-10
-1
-2
-9
-11
-6
-1
2
-5
-7
-9
-2
3
-6
-15
-9
-4
1
-17
-12
-9
-8
-4
-14
-23
-19
-9
-7
-14
-17
-12
-6
-5
-15
-17
-13
-5
-4
-14
-10
-11
-3
-7
-13
-18
-14
-3
-1
-17
-13
-9
-10
-5
-18
-18
-22
-47
-63
-67
-54
-34
-16
-7
-13
-13
-8
4
4
-8
-8
-9
-1
4
-9
-13
-9
5
1
-9
-14
-7
-4
-2
-11
-13
-10
-4
-4
-11
-20
-37
-58
-52
-50
-37
-22
-8
-1
-9
-13
-5
-1
8
-6
-9
-9
6
6
-5
-10
-7
3
3
-8
-10
-7
-5
6
-12
-16
-4
-2
-2
-18
-25
-17
-12
-9
-12
-16
-10
-4
-3
-13
-12
-9
-5
-3
-12
-18
-12
-2
-3
-16
-12
-11
-11
-4
-12
-18
-8
-2
4
-10
-15
-22
-33
-44
-52
-47
-29
-18
-8
-10
-16
-8
-4
-1
-8
-12
-10
-2
1
-10
-17
-11
0
1
-15
-10
-9
-6
-2
-9
-15
-13
0
-2
-9
-9
15
36
43
23
4
-2
2
-1
-8
-16
-9
-3
2
-11
-12
-7
-7
-1
-9
-16
-14
0
-6
-13
-14
-6
-6
1
-7
-19
-7
-7
-5
-8
-15
-10
-14
-21
-33
-32
-22
-11
-5
-8
-14
-8
0
-1
-8
-13
-9
-2
-1
-10
-10
-8
0
-2
-7
-17
-5
-5
0
-7
-17
-7
-9
-1
-14
-13
6
18
34
15
0
-7
-4
-3
-13
-13
-13
-4
-4
-9
-12
-13
-6
-3
-8
-15
-6
-8
-1
-13
-17
-11
-9
1
-15
-11
-13
-2
-9
-9
-12
-24
-27
-28
-38
-36
-27
-13
-5
-11
-13
-9
-3
-2
-6
-13
-11
-3
4
-6
-15
-7
-6
-5
-10
-14
-7
-6
1
-12
-14
-13
-7
2
-10
-9
19
54
83
62
32
17
8
4
-9
-15
-8
-6
-7
-12
-15
-13
-7
-4
-14
-13
-17
-5
-10
-9
-18
-11
-8
-2
-11
-16
-10
-8
-1
-13
-16
-16
-21
-11
-16
-18
-17
-6
-6
-7
-12
-8
-4
0
-9
-17
-10
-5
-3
-8
-13
-9
-2
2
-11
-12
-10
-7
-5
-11
-14
-12
1
-7
-8
-14
-4
15
27
10
-10
-11
-7
-2
-9
-16
-12
-5
-3
-9
-15
-10
-4
-1
-13
-17
-13
-4
-4
-15
-13
-15
-10
1
-10
-16
-7
-6
-4
-7
-17
-12
-9
11
-5
-13
-15
-8
0
-9
-13
-12
0
0
-9
-14
-11
-3
-1
-9
-15
-14
-4
-3
-8
-16
-18
-4
-1
-8
-10
-8
-9
-4
-6
-15
-5
9
41
34
10
3
-1
1
-5
-16
-12
-7
-3
-6
-16
-13
-8
-1
-7
-18
-13
-4
-5
-10
-17
-8
-10
1
-9
-20
-8
-5
-4
-7
-17
-8
12
62
68
40
25
15
12
-8
-16
-12
-7
-5
-12
-17
-16
-8
-6
-12
-18
-17
-9
-8
-11
-20
-14
-14
-1
-15
-15
-14
-6
-5
-9
-17
-15
5
39
46
24
9
8
4
-3
-16
-15
-6
-4
-8
-14
-14
-4
-3
-4
-20
-11
-10
0
-9
-14
-18
-5
-2
-3
-13
-1
12
28
10
-4
58
371
607
553
431
546
1035
1419
1587
1663
1699
1717
1726
1730
1731
1729
1733
1732
1734
1731
1731
1731
1731
1735
1731
1731
1734
1733
1733
1733
1733
1735
1733
1734
1731
1734
1734
1732
1733
1734
1732
1731
1732
1732
1731
1735
1733
1731
1743
1732
1730
1733
1731
1730
1730
1731
1735
1732
1732
1733
1733
1732
1733
1729
1731
1730
1731
1729
1736
1730
1728
1729
1730
1731
1729
1730
1731
1731
1732
1729
1729
1732
1730
1732
1731
1728
1732
1729
1731
1731
1732
1731
1732
1732
1729
1730
1724
1732
1728
1730
1730
1734
1732
1731
1730
1729
1730
1729
1729
1729
1728
1729
1728
1730
1723
1728
1728
1728
1729
1730
1730
1730
1728
1728
1726
1730
1728
1727
1728
1726
1726
1726
1726
1727
1723
1726
1725
1725
1725
1725
1726
1728
1728
1726
1726
1728
1726
1725
1728
1725
1727
1726
1724
1725
1725
1728
1725
1714
1703
1680
1659
1650
1637
1625
1612
1591
1580
1570
1557
1542
1522
1509
1500
1489
1475
1458
1444
1436
1426
1409
1394
1384
1376
1359
1346
1333
1320
1308
1298
1286
1274
1259
1252
1237
1228
1213
1204
1192
1184
1172
1155
1147
1139
1129
1114
1103
1095
1088
1076
1060
1045
1031
1030
1023
1010
1000
990
985
976
967
957
950
942
935
924
915
907
899
890
876
862
853
852
843
834
828
822
815
806
799
792
782
775
770
736
759
846
928
988
974
1010
1111
1206
1280
1316
1334
1344
1344
1339
1329
1313
1297
1282
1270
1253
1240
1222
1206
1195
1177
1163
1148
1138
1124
1110
1095
1083
1069
1060
1046
1031
1019
1008
998
983
974
962
951
943
931
920
908
898
891
878
867
859
849
839
831
821
813
806
795
788
776
769
762
753
747
738
727
722
717
708
699
694
687
680
674
666
660
653
647
642
635
629
619
616
607
603
597
592
585
577
574
568
561
555
550
545
540
534
528
523
516
513
508
500
496
493
485
482
478
472
467
462
459
453
446
442
438
434
430
426
424
419
411
408
405
401
393
391
388
383
379
378
372
367
363
359
356
353
349
346
343
336
333
332
328
322
322
319
311
311
308
302
300
298
296
291
289
284
284
281
279
276
270
268
267
262
262
258
255
249
251
245
239
238
237
236
234
232
228
226
222
219
221
216
211
212
210
205
203
203
199
198
195
193
191
192
187
185
184
179
180
178
175
176
170
169
166
165
165
163
162
157
159
154
155
151
150
148
145
143
143
141
142
138
139
135
134
131
129
130
127
125
125
123
124
122
121
119
115
113
115
112
112
112
109
108
106
105
106
105
102
101
99
99
99
97
96
95
93
92
90
90
87
87
88
85
86
84
81
81
82
80
78
80
77
76
74
74
74
73
74
71
72
68
71
68
68
67
64
63
65
62
62
62
59
59
59
58
58
58
56
54
55
55
52
53
54
52
51
50
50
51
49
49
48
48
47
49
44
44
43
43
44
41
42
44
43
40
38
42
37
38
38
38
38
37
35
34
34
36
32
34
32
31
31
31
32
32
32
32
28
29
25
32
28
26
26
28
25
25
25
28
26
23
24
26
23
22
23
24
21
21
24
21
18
20
20
21
17
18
19
19
17
16
18
17
18
17
15
18
15
17
18
17
16
16
14
15
15
15
12
14
12
10
14
12
13
12
11
13
13
12
11
12
9
9
11
9
11
9
9
8
8
10
8
8
7
7
8
7
7
6
8
6
7
7
6
4
9
8
7
2
8
5
5
3
4
4
7
6
4
4
5
3
3
5
1
5
3
1
1
-3
1
-1
2
2
2
-1
3
1
1
1
0
-3
2
-1
1
-1
-1
1
-2
-1
0
-3
-2
-2
-1
-1
-5
-4
-2
1
-3
-3
-5
-3
-3
-4
-6
-1
-2
-3
-3
-4
-3
-5
-3
0
0
-4
-5
-3
-4
-3
-3
-2
-3
-6
-6
-2
-4
-6
-5
-3
-5
-5
-5
-5
-4
-9
-5
-4
-5
-5
-4
-7
-6
-4
-5
-6
-5
-6
-6
-6
-4
-8
-7
-6
-6
-6
-6
-5
-8
-7
-6
-7
-8
-8
-11
-8
-8
-7
-9
-7
-7
-7
-8
-10
-8
-8
-9
-8
-9
-9
-6
-9
-8
-9
-8
-7
-8
-7
-8
-8
-7
-9
-8
-8
-10
-9
-9
-11
-9
-9
-8
-9
-9
-11
-8
-9
-11
-8
-7
-8
-11
-9
-8
-8
-7
-10
-10
-7
-9
-10
-8
-12
-8
-9
-10
-9
-11
-10
-8
-8
-11
-9
-8
-9
-10
-10
-8
-11
-12
-10
-9
-10
-9
-10
-10
-11
-9
-9
-13
-11
-10
-13
-11
-10
-13
-12
-12
-9
-8
-11
-11
-10
-11
-9
-10
-10
-13
-12
-12
-11
-9
-12
-8
-12
-10
-12
-11
-10
-9
-10
-11
-11
-11
-9
-10
-12
-11
-13
-13
-13
-12
-11
-12
-11
-13
-9
-10
-11
-10
-11
-13
-9
-11
-10
-10
-13
-11
-11
-12
-11
-8
-10
-13
-10
-13
-9
-12
-12
-13
-11
-13
-11
-9
-14
-11
-13
-12
-11
-13
-8
-12
-13
-12
-11
-12
-10
-13
-11
-10
-10
-10
-11
-10
-10
-11
-12
-10
-12
-13
-12
-14
-10
-13
-10
-11
-9
-10
-13
-13
-13
-12
-12
-10
-10
-11
-15
-10
-14
-10
-12
-11
-11
-11
-12
-13
-11
-10
-13
-10
-12
-12
-11
-11
-12
-11
-13
-12
-13
-13
-15
-12
-13
-15
-12
-12
-13
-10
-11
-10
-14
-12
-12
-14
-11
-14
-13
-13
-13
-13
-12
-13
-10
-12
-12
-14
-13
-12
-12
-13
-13
-11
-13
-13
-14
-11
-12
-13
-14
-10
-11
-11
-13
-10
-12
-11
-13
-14
-13
-12
-12
-12
-14
-13
-12
-11
-10
-14
-13
-12
-11
-12
-14
-14
-11
-13
-14
-11
-10
-14
-11
-12
-13
-12
-14
-15
-12
-13
-14
-13
-12
-12
-12
-13
-12
-13
-14
-11
-12
-12
-13
-12
-12
-13
-14
-13
-13
-12
-16
-11
-14
-12
-14
-12
-13
-13
-15
-12
-13
-12
-12
-12
-13
-14
-12
-13
-14
-15
-11
-12
-12
-14
-13
-13
-12
-12
-10
-12
-14
-11
-13
-14
-13
-10
-14
-14
-11
-15
-11
-12
-17
-14
-10
-13
-11
-12
-12
-14
-13
-13
-12
-10
-12
-12
-12
-15
-13
-11
-13
-12
-12
-12
-12
-13
-13
-14
-10
-12
-12
-16
-12
-16
-12
-15
-14
-12
-14
-13
-16
-15
-13
-15
-10
-12
-12
-10
-13
-13
-14
-14
-15
-14
-11
-15
-11
-12
-13
-12
-14
-14
-15
-14
-15
-15
-12
-12
-14
-13
-14
-13
-13
-14
-12
-13
-12
-15
-11
-13
-10
-11
-15
-14
-14
-12
-15
-15
-13
-12
-13
-13
-12
-13
-13
-13
-12
-13
-13
-13
-12
-13
-14
-14
-13
-15
-15
-14
-15
-11
-12
-14
-13
-12
-11
-14
-13
-12
-12
-14
-16
-12
-12
-13
-15
-12
-15
-14
-12
-13
-13
-14
-14
-11
-15
-14
-12
-12
-15
-16
-12
-12
-15
-12
-14
-13
-12
-11
-13
-13
-14
-12
-12
-8
-12
-15
-13
-13
-13
-12
-13
-14
-13
-15
-13
-13
-12
-14
-12
-16
-14
-17
-15
-13
-13
-14
-12
-12
-13
-12
-15
-12
-12
-13
-15
-13
-13
-12
-12
-13
-14
-12
-15
-13
-14
-13
-15
-12
-13
-13
-13
-15
-14
-13
-13
-16
-12
-12
-13
-12
-11
-13
-13
-12
-14
-13
-14
-15
-12
-13
-14
-15
-14
-14
-13
-13
-13
-12
-12
-12
-15
-12
-15
-15
-13
-13
-13
-14
-12
-12
-12
-17
-13
-12
-13
-15
-12
-13
-13
-14
-14
-14
-13
-12
-13
-11
-15
-13
-12
-15
-14
-12
-14
-15
-13
-11
-15
-14
-12
-12
-17
-14
-16
-14
-13
-12
-12
-15
-15
-14
-12
-14
-12
-11
-14
-15
-12
-13
-12
-16
-13
-12
-12
-12
-15
-14
-15
-15
-13
-15
-14
-15
-14
-10
-13
-14
-14
-12
-15
-15
-12
-14
-12
-14
-13
-13
-13
-13
-14
-13
-12
-14
-14
-14
-13
-14
-13
-13
-12
-14
-17
-13
-12
-13
-13
-14
-12
-13
-15
-13
-12
-15
-13
-15
-13
-15
-15
-15
-13
-13
-12
-14
-12
-12
-14
-13
-15
-13
-13
-17
-12
-12
-13
-11
-13
-12
-14
-14
-11
-12
-15
-15
-10
-12
-17
-16
-13
-12
-12
-17
-13
-13
-13
-13
-13
-14
-15
-12
-16
-14
-16
-12
-14
-14
-12
-13
-12
-12
-14
-14
-16
-14
-13
-15
-12
-12
-14
-14
-12
-12
-17
-16
-14
-10
-16
-15
-14
-13
-14
-14
-14
-15
-14
-13
-13
-14
-14
-13
-15
-11
-12
-13
-15
-12
-13
-12
-13
-17
-11
-11
-14
-13
-12
-12
-17
-11
-15
-12
-15
-14
-17
-12
-15
-14
-13
-14
-16
-16
-13
-15
-15
-15
-12
-14
-13
-14
-14
-15
-12
-12
-14
-15
-12
-15
-13
-13
-13
-14
-13
-14
-14
-15
-12
-14
-14
-13
-14
-12
-11
-15
-12
-13
-17
-13
-13
-15
-12
-15
-15
-15
-13
-14
-14
-15
-13
-12
-16
-13
-12
-12
-12
-12
-15
-14
-15
-14
-12
-13
-16
-14
-14
-15
-14
-12
-14
-13
-15
-13
-14
-15
-14
-13
-14
-13
-12
-13
-15
-14
-15
-13
-15
-14
-15
-15
-16
-15
-12
-14
-14
-15
-14
-14
-12
-14
-17
-13
-14
-15
-11
-14
-14
-12
-12
-13
-13
-17
-16
-17
-15
-15
-12
-14
-14
-12
-17
-15
-13
-12
-12
-15
-15
-14
-16
-15
-15
-17
-15
-16
-12
-14
-13
-12
-17
-12
-15
-14
-14
-12
-12
-15
-15
-12
-15
-13
-12
-12
-15
-12
-13
-15
-13
-15
-15
-13
-17
-14
-14
-12
-14
-17
-13
-12
-13
-13
-13
-14
-13
-15
-14
-17
-13
-12
-14
-13
-13
-13
-12
-15
-14
-15
-13
-14
-14
-14
-15
-13
-13
-11
-14
-13
-14
-15
-15
-15
-15
-12
-17
-13
-12
-15
-13
-13
-15
-14
-12
-16
-15
-12
-17
-13
-14
-15
-14
-14
-16
-15
-12
-13
-11
-12
-12
-14
-15
-14
-15
-14
-13
-14
-13
-15
-15
-13
-14
-13
-16
-12
-14
-13
-15
-13
-15
-17
-15
-14
-15
-14
-16
-17
-13
-16
-13
-12
-15
-14
-16
-13
-15
-14
-17
-15
-14
-12
-15
-14
-17
-14
-14
-12
-18
-12
-15
-14
-17
-15
-15
-13
-16
-14
-14
-14
-12
-14
-15
-12
-16
-12
-14
-12
-13
-13
-14
-12
-14
-14
-13
-16
-15
-15
-13
-12
-12
-12
-13
-12
-13
-17
-17
-14
-14
-15
-12
-13
-12
-14
-15
-15
-12
-14
-15
-14
-14
-13
-12
-14
-12
-10
-14
-14
-14
-16
-13
-15
-14
-15
-15
-12
-15
-15
-14
-16
-17
-13
-13
-15
-15
-15
-12
-14
-13
-14
-13
-14
-12
-14
-13
-12
-13
-13
-15
-11
-15
-15
-15
-16
-14
-14
-14
-15
-17
-13
-14
-12
-14
-14
-12
-14
-13
-14
-13
-15
-12
-13
-12
-15
-15
-13
-13
-13
-16
-13
-12
-12
-15
-14
-15
-13
-14
-15
-15
-14
-15
-13
-14
-12
-14
-13
-15
-13
-14
-15
-12
-16
-14
-14
-13
-14
-14
-14
-13
-15
-15
-13
-16
-12
-15
-14
-12
-12
-14
-15
-12
-14
-14
-14
-15
-13
-15
-12
-15
-13
-12
-14
-13
-14
-17
-15
-10
-15
-14
-14
-14
-14
-17
-14
-16
-17
-17
-15
-15
-17
-18
-16
-17
-16
-21
-29
-26
-23
-18
-28
-44
-43
-33
-27
-49
-64
-62
-47
-35
-70
-99
-86
-68
-54
-110
-150
-135
-99
-87
-153
-194
-168
-128
-118
-194
-237
-211
-161
-157
-233
-271
-243
-190
-182
-257
-295
-273
-219
-213
-275
-303
-294
-245
-246
-298
-312
-316
-284
-284
-309
-321
-322
-307
-309
-318
-323
-325
-325
-325
-326
-324
-324
-325
-327
-324
-326
-326
-326
-326
-325
-324
-329
-327
-326
-325
-325
-324
-324
-325
-327
-326
-326
-327
-329
-328
-328
-329
-327
-327
-329
-326
-327
-325
-328
-326
-327
-328
-329
-327
-330
-327
-327
-326
-329
-329
-328
-328
-327
-330
-329
-328
-329
-330
-330
-329
-329
-329
-326
-329
-327
-328
-329
-328
-327
-329
-329
-329
-329
-329
-329
-329
-330
-330
-326
-328
-329
-331
-330
-329
-331
-330
-329
-332
-328
-331
-331
-331
-330
-330
-331
-330
-331
-333
-328
-329
-330
-333
-331
-330
-333
-333
-330
-332
-331
-330
-330
-332
-330
-331
-331
-331
-333
-331
-328
-330
-331
-331
-332
-333
-331
-334
-331
-333
-333
-332
-330
-333
-332
-335
-334
-335
-331
-335
-333
-335
-333
-335
-333
-335
-333
-332
-332
-333
-333
-335
-333
-333
-333
-337
-334
-332
-336
-333
-331
-332
-335
-335
-332
-334
-332
-336
-335
-334
-335
-334
-335
-335
-334
-330
-333
-335
-334
-336
-336
-332
-337
-334
-335
-333
-335
-335
-333
-334
-334
-336
-334
-334
-338
-334
-335
-335
-335
-334
-335
-337
-334
-335
-336
-336
-333
-337
-334
-334
-337
-336
-335
-337
-335
-337
-338
-337
-338
-339
-336
-338
-336
-334
-337
-338
-336
-336
-337
-337
-334
-336
-339
-338
-337
-338
-338
-337
-338
-338
-337
-337
-336
-337
-336
-337
-340
-336
-337
-338
-339
-338
-337
-337
-337
-338
-338
-337
-337
-338
-339
-339
-338
-340
-337
-336
-338
-340
-338
-337
-341
-337
-341
-338
-339
-339
-341
-339
-340
-340
-340
-341
-339
-340
-340
-340
-340
-341
-337
-338
-339
-341
-339
-340
-340
-341
-340
-340
-340
-340
-339
-342
-345
-341
-342
-342
-341
-340
-341
-338
-342
-338
-339
-340
-339
-343
-340
-341
-341
-341
-341
-341
-341
-345
-342
-344
-343
-342
-342
-341
-340
-342
-342
-340
-342
-343
-345
-342
-340
-342
-341
-342
-341
-342
-343
-344
-344
-342
-340
-342
-344
-344
-343
-343
-344
-345
-341
-344
-340
-342
-344
-343
-344
-345
-341
-343
-344
-344
-345
-342
-342
-343
-344
-344
-347
-344
-343
-345
-345
-344
-347
-344
-343
-344
-344
-347
-348
-342
-345
-346
-344
-344
-345
-345
-344
-345
-346
-345
-346
-345
-344
-346
-345
-345
-345
-344
-347
-347
-345
-343
-349
-348
-345
-343
-346
-347
-346
-348
-344
-347
-344
-347
-346
-345
-347
-345
-345
-346
-347
-346
-345
-349
-348
-347
-347
-348
-346
-348
-348
-346
-349
-348
-349
-348
-348
-348
-349
-346
-347
-347
-346
-347
-346
-348
-350
-348
-349
-351
-347
-350
-348
-348
-346
-351
-348
-347
-347
-346
-347
-349
-350
-348
-348
-345
-344
-339
-336
-336
-329
-326
-324
-321
-321
-319
-313
-313
-309
-310
-303
-300
-298
-298
-292
-290
-292
-289
-285
-285
-282
-278
-274
-274
-273
-270
-268
-267
-264
-263
-260
-257
-257
-257
-252
-251
-246
-247
-243
-242
-239
-238
-236
-234
-231
-231
-227
-229
-224
-225
-222
-223
-219
-218
-218
-215
-213
-212
-209
-209
-207
-205
-204
-203
-201
-202
-201
-197
-196
-192
-192
-193
-188
-185
-187
-185
-183
-185
-180
-180
-178
-178
-176
-174
-172
-172
-173
-171
-167
-167
-167
-167
-165
-161
-162
-159
-159
-158
-156
-157
-156
-154
-153
-152
-151
-151
-151
-148
-144
-146
-144
-143
-145
-142
-140
-141
-139
-136
-137
-137
-135
-133
-132
-135
-132
-130
-130
-130
-128
-129
-123
-125
-127
-123
-122
-125
-122
-121
-122
-118
-118
-116
-119
-116
-118
-116
-115
-113
-115
-111
-113
-113
-112
-108
-110
-108
-107
-106
-106
-107
-104
-105
-106
-106
-101
-100
-99
-100
-101
-97
-98
-99
-96
-98
-97
-96
-94
-94
-93
-93
-92
-93
-93
-91
-90
-92
-88
-89
-88
-88
-89
-87
-87
-87
-86
-85
-84
-84
-84
-82
-82
-85
-82
-82
-81
-80
-78
-80
-80
-81
-77
-77
-77
-77
-78
-74
-77
-72
-74
-74
-76
-73
-71
-74
-68
-73
-72
-73
-71
-71
-68
-69
-69
-71
-71
-69
-70
-70
-68
-68
-68
-65
-68
-66
-65
-66
-66
-68
-65
-63
-62
-66
-64
-62
-60
-62
-63
-62
-60
-60
-59
-59
-58
-60
-59
-62
-61
-59
-58
-58
-57
-58
-62
-57
-58
-56
-57
-54
-55
-54
-55
-57
-57
-57
-53
-54
-53
-55
-54
-54
-54
-52
-54
-51
-52
-53
-50
-52
-51
-51
-49
-50
-50
-51
-52
-50
-50
-52
-49
-50
-48
-48
-49
-49
-48
-47
-51
-49
-49
-46
-46
-45
-46
-46
-45
-46
-44
-45
-47
-47
-46
-46
-44
-44
-45
-45
-45
-42
-44
-45
-42
-43
-44
-45
-45
-44
-44
-41
-40
-41
-41
-43
-44
-45
-41
-40
-43
-42
-39
-42
-41
-40
-41
-38
-40
-38
-39
-41
-42
-39
-39
-40
-40
-37
-41
-42
-42
-41
-41
-38
-39
-39
-38
-36
-41
-37
-38
-35
-38
-39
-38
-36
-37
-36
-36
-36
-37
-37
-36
-35
-34
-37
-36
-34
-34
-37
-32
-35
-35
-36
-37
-36
-35
-36
-37
-36
-35
-32
-34
-36
-34
-34
-37
-32
-32
-33
-35
-32
-33
-33
-35
-33
-33
-33
-32
-34
-31
-32
-33
-28
-31
-34
-33
-35
-34
-32
-32
-31
-32
-35
-33
-32
-31
-32
-31
-35
-32
-33
-33
-29
-31
-31
-28
-33
-36
-30
-33
-31
-32
-32
-31
-29
-29
-30
-32
-27
-30
-29
-31
-30
-30
-32
-31
-30
-28
-29
-28
-33
-32
-30
-28
-30
-31
-28
-29
-28
-28
-30
-30
-29
-29
-30
-31
-31
-29
-28
-28
-33
-27
-26
-29
-28
-29
-29
-29
-29
-27
-28
-26
-28
-28
-28
-26
-27
-28
-28
-30
-29
-26
-30
-28
-29
-29
-28
-30
-26
-29
-26
-28
-26
-29
-28
-26
-25
-25
-27
-26
-28
-26
-29
-25
-26
-27
-27
-27
-27
-26
-27
-27
-26
-28
-25
-28
-25
-27
-28
-29
-27
-27
-26
-26
-25
-26
-25
-26
-27
-25
-29
-24
-24
-26
-25
-28
-26
-26
-27
-23
-26
-23
-26
-28
-26
-26
-29
-22
-27
-25
-25
-24
-26
-26
-25
-27
-26
-25
-26
-25
-25
-24
-23
-27
-24
-25
-24
-25
-27
-24
-24
-27
-26
-23
-25
-24
-24
-25
-24
-25
-24
-26
-26
-24
-23
-25
-24
-25
-24
-23
-22
-24
-25
-25
-28
-24
-27
-27
-24
-24
-24
-21
-25
-22
-25
-24
-27
-24
-26
-24
-25
-23
-22
-25
-22
-27
-24
-24
-25
-26
-22
-24
-22
-22
-24
-25
-23
-24
-24
-24
-24
-24
-23
-24
-25
-22
-25
-21
-26
-25
-22
-27
-24
-23
-24
-24
-22
-24
-24
-24
-23
-25
-24
-24
-25
-21
-24
-25
-22
-24
-24
-24
-25
-25
-23
-23
-25
-22
-23
-23
-23
-22
-23
-22
-25
-23
-23
-23
-23
-21
-21
-22
-23
-21
-25
-23
-23
-25
-21
-22
-23
-23
-23
-23
-22
-22
-23
-23
-23
-23
-22
-23
-22
-23
-25
-23
-23
-23
-23
-21
-22
-24
-23
-22
-22
-21
-23
-19
-21
-26
-23
-22
-23
-20
-22
-21
-23
-21
-24
-23
-21
-21
-24
-25
-21
-21
-25
-21
-21
-20
-22
-23
-21
-21
-24
-20
-19
-21
-22
-23
-23
-20
-23
-22
-21
-22
-23
-22
-21
-20
-22
-21
-23
-20
-22
-18
-21
-23
-23
-20
-20
-21
-22
-21
-22
-22
-19
-24
-23
-25
-22
-23
-20
-21
-23
-23
-24
-22
-21
-19
-21
-21
-22
-23
-23
-21
-22
-22
-25
-19
-20
-23
-21
-22
-22
-20
-20
-21
-23
-23
-21
-21
-20
-22
-20
-23
-24
-22
-23
-22
-22
-23
-21
-20
-22
-21
-22
-20
-23
-21
-20
-20
-20
-20
-20
-20
-22
-21
-23
-21
-20
-18
-20
-20
-21
-20
-22
-25
-20
-21
-20
-20
-21
-20
-23
-23
-18
-21
-21
-20
-23
-21
-20
-19
-20
-22
-25
-20
-23
-20
-21
-20
-21
-20
-20
-20
-24
-21
-21
-21
-20
-20
-20
-20
-21
-23
-20
-22
-22
-23
-20
-20
-20
-23
-19
-23
-19
-20
-24
-20
-20
-21
-22
-21
-21
-21
-21
-21
-21
-19
-22
-24
-22
-21
-20
-20
-21
-22
-23
-20
-19
-20
-20
-20
-21
-25
-21
-24
-23
-18
-21
-22
-20
-21
-23
-19
-21
-20
-20
-21
-20
-18
-24
-19
-19
-20
-21
-20
-20
-20
-18
-21
-22
-19
-17
-19
-20
-23
-21
-21
-21
-21
-19
-18
-22
-21
-21
-23
-21
-21
-21
-20
-21
-21
-20
-22
-20
-20
-18
-22
-24
-20
-18
-23
-24
-22
-21
-20
-21
-21
-19
-23
-20
-22
-21
-19
-20
-18
-20
-20
-18
-19
-21
-20
-20
-22
-20
-20
-20
-20
-20
-20
-18
-20
-19
-21
-21
-17
-21
-21
-19
-21
-18
-20
-20
-21
-22
-21
-20
-21
-21
-19
-20
-21
-20
-20
-21
-21
-21
-18
-20
-20
-20
-21
-22
-18
-20
-20
-21
-19
-21
-18
-19
-21
-19
-21
-20
-18
-18
-17
-21
-20
-21
-19
-21
-23
-19
-20
-18
-18
-20
-18
-20
-18
-21
-19
-23
-20
-20
-24
-20
-20
-19
-21
-19
-22
-20
-19
-17
-24
-22
-18
-20
-20
-19
-19
-19
-19
-18
-23
-18
-20
-21
-20
-20
-20
-22
-19
-21
-20
-22
-20
-21
-18
-23
-21
-20
-18
-19
-22
-18
-20
-21
-21
-16
-20
-19
-19
-17
-21
-20
-21
-21
-21
-20
-20
-23
-19
-21
-19
-18
-21
-19
-18
-19
-19
-17
-18
-19
-20
-21
-19
-20
-20
-18
-19
-19
-19
-20
-19
-19
-18
-18
-18
-19
-20
-20
-19
-19
-19
-21
-19
-20
-20
-21
-21
-19
-21
-20
-18
-18
-20
-18
-23
-21
-19
-20
-21
-21
-20
-22
-17
-20
-21
-19
-20
-18
-20
-19
-22
-21
-17
-20
-21
-19
-18
-19
-20
-20
-19
-18
-19
-20
-21
-19
-21
-19
-21
-19
-20
-21
-19
-20
-20
-18
-18
-21
-18
-18
-21
-21
-19
-19
-19
-21
-22
-19
-18
-20
-20
-19
-22
-19
-18
-19
-19
-21
-22
-20
-21
-19
-20
-23
-20
-19
-18
-19
-19
-20
-19
-20
-20
-19
-21
-19
-19
-16
-21
-20
-18
-20
-20
-21
-20
-22
-19
-20
-19
-21
-17
-22
-21
-18
-19
-20
-21
-20
-19
-18
-24
-19
-20
-20
-18
-21
-21
-16
-20
-21
-20
-18
-18
-23
-21
-19
-21
-20
-23
-19
-20
-19
-18
-21
-18
-20
-21
-23
-20
-21
-19
-20
-19
-19
-20
-23
-19
-19
-20
-18
-19
-19
-19
-21
-19
-19
-20
-22
-21
-18
-19
-20
-23
-19
-19
-17
-19
-19
-21
-19
-21
-21
-19
-18
-23
-20
-20
-19
-18
-18
-19
-18
-19
-20
-18
-19
-19
-21
-20
-20
-19
-18
-21
-19
-20
-18
-20
-20
-19
-18
-21
-20
-20
-19
-18
-20
-20
-17
-17
-21
-19
-16
-18
-17
-20
-19
-18
-19
-21
-20
-19
-18
-20
-18
-21
-18
-19
-19
-21
-19
-21
-18
-20
-18
-20
-21
-17
-23
-18
-20
-19
-19
-23
-20
-21
-20
-18
-19
-20
-19
-19
-21
-18
-18
-21
-18
-19
-19
-19
-19
-18
-19
-19
-21
-20
-20
-19
-18
-18
-19
-18
-18
-21
-19
-19
-19
-20
-18
-22
-19
-19
-16
-19
-21
-18
-21
-19
-19
-19
-19
-16
-20
-20
-18
-19
-18
-20
-18
-20
-16
-20
-18
-18
-19
-19
-18
-18
-17
-19
-21
-19
-16
-20
-19
-18
-19
-21
-19
-18
-19
-20
-19
-20
-19
-20
-20
-16
-18
-20
-21
-19
-21
-21
-20
-20
-20
-18
-18
-20
-18
-18
-17
-18
-19
-20
-16
-20
-19
-19
-19
-20
-17
-19
-21
-18
-20
-19
-20
-18
-22
-21
-19
-20
-18
-19
-19
-20
-21
-21
-17
-18
-18
-19
-22
-19
-21
-21
-18
-18
-21
-19
-20
-20
-17
-18
-20
-21
-19
-19
-21
-18
-21
-17
-20
-19
-18
-20
-19
-18
-18
-18
-20
-21
-18
-17
-18
-21
-19
-18
-16
-17
-19
-23
-18
-18
-18
-18
-19
-20
-19
-21
-17
-18
-19
-21
-20
-18
-21
-18
-19
-21
-18
-20
-18
-18
-21
-21
-17
-21
-19
-21
-18
-19
-16
-20
-18
-16
-19
-21
-18
-20
-18
-20
-19
-21
-17
-19
-20
-19
-19
-17
-18
-18
-19
-21
-21
-21
-21
-20
-18
-18
-19
-21
-21
-18
-20
-19
-19
-20
-19
-23
-19
-20
-20
-18
-19
-16
-20
-18
-21
-21
-20
-20
-21
-19
-20
-19
-20
-18
-21
-18
-18
-20
-20
-18
-21
-18
-16
-19
-18
-20
-19
-21
-18
-19
-19
-20
-17
-20
-19
-17
-21
-21
-19
-20
-19
-20
-19
-19
-18
-19
-19
-20
-21
-19
-17
-17
-17
-21
-20
-21
-19
-18
-20
-21
-19
-19
-19
-19
-17
-21
-18
-19
-19
-20
-18
-17
-18
-18
-21
-19
-18
-19
-18
-19
-20
-16
-19
-20
-20
-19
-16
-19
-21
-20
-19
-20
-16
-19
-20
-18
-18
-20
-20
-20
-16
-21
-18
-18
-20
-20
-19
-19
-18
-16
-18
-19
-17
-19
-17
-17
-18
-19
-20
-19
-17
-18
-18
-21
-17
-18
-19
-22
-16
-18
-18
-19
-16
-20
-23
-20
-19
-20
-18
-23
-19
-19
-20
-18
-17
-20
-18
-16
-18
-20
-21
-18
-16
-20
-18
-19
-19
-19
-16
-19
-19
-20
-20
-16
-19
-18
-20
-19
-22
-20
-17
-21
-19
-19
-16
-16
-20
-19
-18
-20
-19
-21
-17
-20
-17
-20
-20
-17
-18
-20
-17
-19
-19
-17
-18
-19
-17
-18
-18
-19
-19
-19
-17
-19
-18
-18
-19
-18
-19
-18
-18
-19
-19
-19
-18
-18
-18
-19
-18
-21
-16
-19
-17
-18
-18
-17
-17
-15
-19
-16
-19
-18
-17
-20
-20
-18
-17
-21
-19
-23
-15
-17
-17
-21
-20
-19
-20
-19
-16
-18
-20
-17
-18
-19
-21
-20
-19
-19
-19
-18
-20
-17
-18
-19
-23
-21
-19
-18
-18
-16
-19
-19
-20
-16
-17
-17
-21
-21
-20
-18
-19
-20
-16
-18
-17
-21
-18
-19
-19
-20
-17
-20
-16
-16
-18
-18
-18
-19
-18
-18
-19
-16
-20
-20
-17
-18
-20
-17
-20
-17
-16
-21
-19
-19
-19
-16
-18
-20
-17
-17
-19
-18
-19
-21
-20
-19
-19
-16
-17
-18
-21
-18
-18
-16
-17
-19
-18
-19
-18
-20
-19
-18
-18
-20
-20
-20
-16
-18
-18
-18
-18
-17
-17
-17
-17
-18
-16
-16
-17
-19
-19
-20
-19
-17
-16
-16
-16
-16
-18
-20
-20
-17
-19
-18
-18
-16
-17
-16
-19
-19
-18
-18
-21
-19
-21
-17
-18
-17
-19
-18
-20
-19
-19
-14
-16
-18
-19
-18
-17
-17
-21
-20
-21
-18
-16
-17
-18
-19
-18
-21
-19
-18
-18
-17
-19
-19
-19
-16
-5
2
9
12
14
16
12
11
9
6
4
-4
-8
-7
-5
-3
-2
-2
0
0
1
2
-1
2
1
-1
-3
1
1
1
-2
-4
-3
-4
-2
-9
-6
-4
-6
-5
-9
17
174
330
427
425
419
461
520
564
586
602
593
624
618
636
975
1223
1367
1435
1466
1479
1485
1490
1487
1492
1493
1492
1494
1492
1495
1494
1492
1493
1493
1493
1494
1493
1495
1493
1492
1495
1493
1494
1494
1494
1497
1496
1495
1490
1494
1496
1493
1495
1494
1494
1494
1493
1496
1497
1493
1494
1493
1495
1494
1496
1494
1492
1494
1492
1495
1496
1492
1493
1493
1494
1496
1491
1496
1494
1494
1494
1493
1492
1492
1490
1493
1492
1492
1492
1491
1492
1494
1491
1496
1493
1493
1493
1494
1493
1491
1491
1492
1492
1491
1489
1496
1490
1492
1492
1491
1492
1491
1492
1492
1491
1495
1490
1474
1459
1446
1432
1416
1406
1389
1379
1366
1355
1341
1332
1321
1309
1294
1285
1276
1262
1252
1241
1230
1217
1207
1198
1186
1177
1169
1156
1147
1134
1125
1114
1106
1095
1084
1075
1067
1056
1048
1037
1028
1021
1011
1001
994
984
976
967
957
950
942
931
926
918
910
900
892
882
876
868
859
854
844
838
829
817
814
807
798
795
785
779
770
761
755
750
742
736
728
724
716
710
702
695
692
682
677
672
664
657
651
646
640
633
629
624
614
612
605
598
595
588
584
579
574
568
561
557
550
547
543
535
529
523
521
518
511
507
501
495
493
486
484
478
473
469
468
461
453
452
448
442
440
435
431
427
423
417
413
412
406
404
399
397
393
390
384
381
376
376
369
364
361
360
356
354
347
346
342
339
336
332
332
325
323
320
316
311
310
307
305
302
300
296
294
291
286
283
282
279
275
276
273
268
265
263
259
260
254
252
247
249
246
245
239
238
235
234
232
231
228
227
224
223
216
219
215
213
212
207
205
204
199
201
199
197
194
191
192
187
185
182
184
182
181
178
174
176
172
172
167
168
165
164
163
162
157
157
156
154
151
148
147
149
146
144
145
141
140
137
137
135
133
133
132
131
131
127
127
126
109
39
-74
-190
-270
-336
-397
-433
-449
-452
-455
-459
-460
-456
-459
-456
-460
-456
-459
-458
-460
-459
-459
-461
-459
-460
-460
-456
-462
-461
-460
-461
-463
-458
-460
-460
-458
-460
-461
-462
-463
-459
-460
-460
-461
-461
-461
-462
-458
-461
-460
-461
-461
-461
-462
-463
-460
-460
-460
-462
-461
-463
-463
-463
-462
-462
-465
-463
-462
-464
-462
-461
-463
-461
-464
-464
-461
-461
-460
-463
-463
-462
-461
-462
-462
-463
-461
-463
-465
-462
-465
-463
-462
-465
-460
-466
-464
-464
-464
-464
-464
-464
-463
-464
-463
-462
-463
-462
-463
-463
-463
-463
-463
-464
-463
-464
-461
-464
-463
-463
-465
-461
-462
-463
-464
-464
-464
-469
-464
-465
-465
-461
-460
-465
-464
-462
-464
-465
-465
-465
-464
-463
-464
-463
-463
-465
-464
-465
-463
-464
-465
-465
-465
-463
-468
-465
-464
-465
-466
-465
-466
-465
-387
230
891
1206
1352
1413
1445
1457
1464
1470
1472
1471
1475
1473
1472
1472
1473
1475
1471
1474
1474
1473
1473
1474
1471
1473
1473
1473
1471
1476
1474
1472
1473
1472
1473
1473
1474
1471
1469
1471
1473
1474
1471
1471
1473
1312
867
301
-117
-314
-399
-436
-452
-460
-462
-464
-465
-468
-466
-429
43
632
1079
1293
1390
1432
1451
1462
1466
1469
1470
1470
1468
1470
1473
1471
1472
1472
1471
1473
1473
1471
1472
1473
1472
1471
1472
1470
1470
1469
1469
1472
1471
1470
1470
1472
1472
1472
1469
1472
1469
1472
1466
1229
647
160
-180
-342
-411
-440
-457
-463
-467
-467
-468
-469
-468
-467
-469
-468
-471
-471
-465
-463
-474
-472
-362
-30
383
336
33
-224
-354
-424
-451
-462
-468
-469
-469
-471
-469
-472
-421
-291
-284
-384
-440
-459
-467
-470
-470
-469
-469
-472
-471
-470
-473
-472
-472
-474
-471
-472
-473
-471
-470
-472
-472
-470
-473
-473
-470
-472
-473
-472
-472
-470
-471
-473
-470
-472
-471
-472
-475
-474
-470
-472
-472
-475
-475
-472
-473
-475
-474
-472
-471
-473
-475
-475
-474
-468
-473
-473
-470
-472
-472
-473
-475
-468
-451
-463
-472
-474
-461
-439
-463
-470
-472
-474
-474
-475
-473
-472
-472
-475
-477
-476
-475
-474
-473
-472
-473
-476
-476
-475
-478
-475
-475
-475
-473
-26
705
1122
1307
1394
1429
1446
1457
1457
1460
1463
1464
1464
1464
1468
1463
1464
1464
1467
1464
1464
1464
1464
1464
1189
625
73
-237
-248
183
300
571
999
1255
1377
1419
1444
1455
1460
1459
1461
1462
1461
1464
1464
1463
1462
1462
1464
1463
1407
1281
1140
1028
929
822
731
656
591
517
469
404
336
272
204
147
81
24
-40
-106
-152
-211
-284
-331
-366
-402
-445
-462
-468
-475
-476
-478
-475
-478
-477
-479
-477
-479
-477
-476
-479
-476
-479
-478
-478
-477
-476
-477
-478
-477
-482
-479
-480
-478
-477
-479
-477
-479
-478
-479
-477
-478
-481
-479
-479
-479
-476
-477
-480
-478
-476
-477
-480
-476
-478
-481
-478
-478
-477
-478
-480
-481
-478
-479
-481
-479
-479
-479
-480
-478
-481
-479
-481
-480
-483
-481
-483
-481
-481
-481
-480
-477
-479
-481
-485
-481
-481
-483
-481
-479
-481
-483
-483
-480
-481
-482
-483
-480
-480
-482
-480
-481
-483
-480
-482
-483
-482
-482
-481
-480
-481
-287
395
979
1239
1357
1408
1434
1446
1451
1455
1455
1454
1459
1457
1455
1457
1458
1458
1455
1459
1455
1457
1457
1456
1458
1456
1456
1458
1458
1458
1456
1460
1462
1457
1457
1457
1457
1455
1457
1457
1458
1460
1456
1456
1457
1459
1456
1456
1458
1458
1457
1456
1455
1455
1458
1457
1456
1456
1454
1454
1458
1457
1456
1455
1456
1455
1454
1456
1455
1457
1457
1457
1457
1454
1455
1454
1454
1458
1455
1455
1457
1458
1458
1458
1455
1447
1433
1420
1410
1392
1379
1367
1354
1342
1331
1318
1304
1027
417
-77
-301
-404
-448
-466
-475
-480
-482
-483
-483
-484
-484
-484
-485
-486
-484
-484
-484
-485
-483
-483
-485
-484
-484
-487
-484
-486
-487
-484
-487
-484
-486
-482
-487
-486
-488
-487
-487
-485
-484
-487
-487
-487
-488
-485
-487
-486
-487
-487
-486
-488
-487
-489
-486
-486
-487
-486
-487
-489
-486
-489
-485
-372
111
572
864
1003
1060
1071
1040
1006
952
887
825
746
652
566
506
450
388
318
249
199
112
9
-32
-12
50
27
-53
-134
-216
-276
-308
-329
-346
-353
-326
-293
-313
-370
-431
-465
-477
-481
-486
-487
-487
-488
-488
-489
-490
-488
-489
-490
-489
-491
-491
-490
-489
-488
-489
-488
-491
-488
-489
-491
-491
-490
-488
-489
-491
-489
-489
-489
-489
-492
-492
-492
-492
-488
-488
-490
-491
-490
-488
-491
-493
-490
-488
-492
-490
-490
-491
-490
-490
-491
-490
-495
-491
-493
-488
-490
-492
-491
-490
-492
-491
-492
-492
-490
-492
-491
-492
-490
-491
-493
-490
-491
-493
-490
-491
-491
-493
-494
-491
-490
-491
-493
-493
-493
-489
-487
-480
-476
-473
-465
-464
-461
-456
-455
-447
-446
-440
-436
-434
-429
-424
-426
-418
-417
-415
-410
-406
-405
-402
-399
-393
-389
-387
-386
-380
-378
-372
-372
-368
-369
-364
-358
-360
-357
-354
-350
-351
-346
-342
-338
-335
-333
-329
-328
-327
-325
-321
-319
-315
-312
-310
-308
-304
-305
-301
-299
-296
-293
-290
-290
-288
-285
-285
-280
-281
-276
-273
-272
-268
-267
-265
-264
-262
-260
-258
-257
-253
-250
-253
-247
-244
-245
-242
-241
-239
-236
-236
-235
-231
-228
-230
-226
-224
-221
-222
-220
-216
-214
-217
-212
-212
-209
-209
-208
-207
-204
-202
-201
-201
-195
-195
-197
-193
-191
-193
-187
-188
-187
-185
-182
-182
-180
-178
-179
-174
-177
-173
-173
-171
-175
-168
-167
-165
-166
-166
-164
-163
-160
-161
-157
-158
-158
-154
-154
-154
-154
-152
-151
-151
-147
-146
-140
214
853
1175
1321
1384
1413
1428
1436
1436
1439
1441
1437
1439
1441
1441
1441
1443
1441
1441
1442
1441
1439
1439
1440
1441
1440
1439
1444
1441
1437
1380
1319
1260
1207
1153
1100
1062
1020
984
953
911
864
820
771
716
656
590
525
393
319
506
600
561
478
388
307
237
180
120
53
-2
-63
-101
-116
-128
-136
-126
-104
-92
-85
-84
-88
-113
-162
-214
-247
-263
-284
-320
-368
-414
-457
-314
302
902
1198
1328
1391
1416
1426
1431
1436
1434
1437
1439
1436
1436
1441
1437
1436
1439
1439
1439
1435
1439
1439
1437
1439
1440
1439
1440
1436
1436
1437
1438
1438
1439
1438
1437
1437
1438
1437
1440
1436
1438
1440
1435
1439
1440
1437
1440
1438
1438
1438
1440
1437
1436
1440
1438
1437
1438
1437
1440
1440
1438
1434
1441
1436
1389
1289
1248
1268
1260
1242
1193
1088
932
766
636
559
508
447
401
325
265
257
285
268
176
-4
-141
-206
-307
-417
-469
-484
-493
-499
-501
-501
-449
23
590
1033
1255
1350
1396
1416
1424
1429
1429
1432
1433
1433
1436
1436
1436
1435
1435
1434
1437
1433
1436
1433
1434
1436
1436
1435
1434
1435
1434
1434
1436
1435
1435
1435
1437
1432
1436
1436
1433
1435
1434
1424
1409
1394
1380
1365
1353
1342
1327
1317
1303
1296
1280
1273
1258
1248
1237
1226
1216
1203
1196
1186
1172
1160
1153
1142
1133
1123
1111
1101
1093
1080
1065
1020
949
878
779
716
628
551
480
396
297
206
153
136
77
4
-61
-148
-212
-276
-315
-319
-344
-365
-396
-455
-487
-496
-502
-509
-505
-506
-506
-506
-507
-509
-509
-506
-506
-508
-509
-506
-505
-506
-509
-509
-508
-507
-509
-510
-511
-509
-506
-511
-508
-508
-506
-509
-510
-509
-510
-510
-509
-509
-510
-509
-509
-507
-506
-507
-510
-509
-508
-513
-512
-511
-510
-507
-508
-509
-510
-508
-509
-508
-509
-508
-511
-509
-509
-509
-510
-508
-509
-509
-511
-510
-510
-512
-511
-509
-510
-510
-510
-510
-512
-510
-511
-512
-508
-512
-510
-510
-511
-509
-511
-509
-512
-511
-513
-511
-510
-512
-512
-511
-511
-512
-510
-511
-512
-511
-511
-511
-512
-511
-511
-510
-511
-511
-510
-512
-513
-510
-512
-513
-513
-512
-511
-512
-511
-511
-513
-512
-514
-511
-510
-512
-513
-512
-512
-511
-512
-514
-515
-515
-512
-511
-512
-513
-512
-515
-513
-512
-512
-513
-512
-511
-511
-510
-512
-513
-512
-511
-513
-512
-514
-511
-513
-513
-516
-513
-514
-513
-515
-515
-513
-515
-514
-516
-514
-515
-512
-515
-513
-513
-514
-514
-512
-515
-513
-515
-510
-514
-512
-514
-515
-515
-516
-512
-512
-516
-515
-514
-515
-515
-517
-514
-515
-515
-517
-515
-517
-514
-514
-509
-509
-500
-495
-493
-490
-485
-478
-474
-470
-466
-462
-460
-455
-452
-449
-444
-443
-435
-433
-431
-429
-425
-419
-414
-412
-411
-406
-405
-403
-397
-395
-391
-389
-384
-380
-379
-377
-372
-369
-365
-363
-360
-359
-355
-353
-350
-345
-345
-340
-336
-336
-333
-329
-326
-325
-323
-319
-319
-314
-312
-311
-311
-309
-303
-301
-299
-296
-296
-292
-287
-287
-285
-282
-280
-276
-277
-274
-273
-270
-268
-266
-264
-262
-261
-259
-255
-253
-252
-249
-249
-247
-244
-242
-240
-236
-238
-234
-234
-231
-229
-226
-226
-224
-220
-223
-220
-218
-215
-213
-214
-211
-208
-205
-204
-205
-202
-202
-201
-200
-196
-195
-192
-193
-193
-191
-187
-188
-187
-185
-185
-178
-179
-179
-176
-175
-177
-173
-171
-173
-172
-168
-166
-165
-164
-163
-164
-161
-161
-159
-159
-155
-155
-157
-155
-153
-148
-149
-149
-148
-148
-148
-145
-143
-143
-142
-145
-142
-139
-138
-139
-134
-136
-135
-134
-132
-132
-133
-130
-127
-124
-129
-126
-125
-123
-125
-122
-125
-123
-114
-108
-109
-112
-114
-112
-114
-118
-112
-113
-112
-106
-105
-102
-104
-104
-104
-105
-106
-106
-107
-104
-107
-105
-104
-102
-104
-100
-101
-103
-102
-100
-100
-98
-96
-97
-97
-94
-96
-92
-93
-94
-93
-92
-93
-91
-87
-92
-88
-89
-90
-89
-87
-87
-84
-84
-87
-82
-85
-82
-85
-84
-82
-82
-80
-80
-79
-77
-78
-80
-79
-78
-78
-77
-76
-74
-76
-75
-76
-72
-78
-75
-72
-73
-69
-73
-72
-72
-68
-69
-68
-70
-69
-68
-65
-66
-69
-69
-66
-68
-66
-67
-65
-52
-12
32
79
111
136
146
143
163
190
207
209
224
241
252
253
264
274
278
275
299
314
309
299
307
307
319
332
331
340
352
360
371
396
390
424
418
397
401
368
356
349
339
336
335
289
174
68
-27
-83
-126
-120
368
944
1201
1313
1366
1391
1319
976
590
268
28
-135
-238
-300
-339
-359
-372
-380
-379
-380
-373
-334
-124
89
234
320
368
383
381
373
359
343
319
302
280
262
207
124
40
-49
-109
-168
-237
-305
-360
-401
-133
299
650
1054
1247
1336
1369
1295
1259
1278
1288
1356
1387
1269
1022
835
781
828
926
1043
1159
1261
1343
1382
1400
1405
1407
1237
742
213
-186
-377
-460
-496
-514
-518
-524
-526
-446
135
789
1130
1282
1211
885
605
442
387
395
444
501
493
220
-133
-356
-453
-401
-45
284
400
380
286
136
0
-36
-13
0
-8
-25
-39
-40
-84
-214
-386
-472
-503
-518
-525
-529
-514
-327
-91
26
73
194
375
466
352
65
-224
-404
-424
-311
-188
-61
63
58
-2
57
283
366
227
-18
-276
-423
-487
-510
-522
-529
-530
-532
-532
-530
-532
-531
-447
-285
-138
-27
41
87
108
111
113
107
99
95
85
81
85
89
80
68
37
-75
-245
-404
-481
-456
-337
-212
-112
-40
2
28
47
56
59
62
60
58
57
62
62
59
59
54
44
45
38
32
37
31
25
22
20
21
12
15
6
-44
-103
-134
-151
-188
-215
-246
-289
-298
-323
-326
-328
-351
-348
-338
-346
-346
-365
-366
-266
-152
-69
-8
31
49
60
74
68
78
71
80
78
75
74
71
66
63
60
54
45
42
38
33
32
25
23
20
17
12
11
40
77
108
137
159
179
179
159
136
200
559
954
1201
1311
1365
1382
1393
1397
1401
1321
1118
853
593
370
200
79
-5
-36
-10
70
166
269
364
454
531
601
657
710
750
788
821
851
879
901
919
949
1022
1097
1145
1132
1087
1029
1000
988
971
956
941
955
967
947
935
965
1002
1001
963
915
879
840
811
787
771
748
726
713
708
697
665
619
582
566
544
520
494
488
487
484
476
467
456
449
452
453
450
441
350
10
-297
-431
-493
-517
-528
-532
-536
-537
-537
-536
-539
-540
-538
-539
-540
-539
-538
-539
-537
-541
-539
-469
-344
-229
-137
-77
-37
-3
9
6
42
96
119
89
44
-21
-74
-132
-190
-252
-337
-392
-416
-398
-9
645
1062
1248
1328
1366
1384
1391
1394
1395
1399
1400
1399
1400
1398
1398
1401
1401
1400
1399
1399
1398
1397
1400
1398
1399
1400
1400
1399
1396
1400
1400
1399
1400
1400
1397
1399
1400
1180
597
29
-287
-429
-488
-518
-531
-532
-536
-542
-539
-541
-544
-541
-541
-541
-535
-491
-432
-380
-332
-298
-267
-240
-221
-202
-185
-169
-178
-219
-237
144
716
1089
1253
1331
1367
1383
1391
1394
1396
1397
1396
1395
1396
1129
538
-28
-317
-441
-496
-519
-535
-538
-539
-541
-542
-545
-545
-543
-432
-283
-117
102
163
261
343
299
108
40
31
148
210
286
270
248
204
36
-61
-269
-426
-494
-520
-530
-539
-541
-542
-544
-543
-544
-545
-554
-543
-544
-345
-147
16
65
5
225
674
1062
1244
1324
1361
1379
1387
1392
1395
1393
1395
1396
1395
1393
1394
1396
1283
717
68
-272
-434
-493
-516
-532
-540
-540
-540
-507
-267
116
558
612
289
12
97
122
123
-38
-220
-353
-461
-510
-529
-537
-543
-544
-547
-544
-381
-299
-301
-333
-364
-390
-417
-426
-429
-426
-412
-392
-369
-345
-323
-297
-280
-264
-313
-294
-258
-301
-381
-452
-504
-530
-542
-545
-542
-544
-547
-547
-545
-483
-259
-42
101
151
51
-109
-252
-354
-447
-486
-461
-498
-527
-460
-13
624
1043
1232
1315
1357
1374
1384
1389
1391
1390
1389
1390
1395
1390
1389
1391
1389
1392
1391
1394
1389
1388
1388
1392
1391
1392
1391
1391
1392
1390
1392
1391
1392
1392
1392
1391
1391
1393
1391
1390
1394
1251
652
23
-293
-112
391
860
1152
1284
1339
1367
1380
1386
1385
1391
1392
1236
627
0
-304
-311
145
658
1049
1240
1320
1358
1374
1383
1386
1385
1389
1390
1392
1391
1392
1389
1389
1389
1391
1391
1390
1385
1334
806
128
-246
-412
-489
-522
-535
-544
-542
-547
-548
-550
-353
-221
50
296
442
377
123
119
14
-259
-364
-463
-517
-534
-550
-549
-532
-461
-474
-400
-311
-222
-148
-81
150
464
761
706
572
415
268
112
30
-7
-30
-57
-78
-95
-103
-100
-106
-100
-158
-302
-417
-492
-493
-269
195
789
1119
1263
1330
1361
1374
1379
1383
1385
1386
1386
1386
1387
1388
1386
1388
1388
1386
1389
1385
1387
1388
1387
1390
1387
1387
1388
1389
1385
1387
1387
1161
643
77
-273
-428
-438
-336
-277
-241
-285
-353
-425
-482
-522
-542
-546
-551
-552
-553
-548
-554
-553
-550
-545
-334
35
411
489
365
270
239
255
303
363
421
472
505
522
519
503
469
410
325
243
218
235
264
287
292
281
260
243
279
405
466
440
375
290
210
145
88
55
25
-3
-32
-52
-73
-96
-121
-136
-147
-165
-190
-216
-242
-261
-274
-279
-283
-289
-296
-303
-310
-318
-316
-312
-317
-319
-320
-323
-325
-326
-330
-331
-328
-324
-327
-332
-335
-348
-369
-387
-406
-431
-453
-480
-505
-532
-548
-553
-553
-556
-555
-555
-559
-556
-555
-555
-556
-557
-559
-557
-556
-555
-556
-558
-556
-556
-559
-557
-558
-557
-558
-556
-557
-556
-557
-555
-557
-556
-556
-559
-556
-556
-559
-558
-556
-559
-558
-557
-557
-558
-556
-556
-558
-559
-555
-556
-557
-559
-561
-558
-561
-556
-560
-558
-559
-558
-557
-556
-558
-559
-559
-556
-558
-559
-557
-560
-558
-557
-558
-558
-558
-555
-548
-546
-549
-550
-557
-561
-556
-559
-559
-555
-548
-543
-530
-525
-517
-515
-506
-505
-500
-496
-488
-481
-475
-467
-459
-445
-429
-426
-439
-445
-442
-448
-456
-463
-467
-467
-464
-453
-437
-411
-400
-416
-421
-415
-403
-383
-373
-367
-365
-355
-349
-340
-340
-338
-339
-333
-328
-325
-316
-315
-315
-315
-308
-300
-291
-283
-272
-268
-266
-263
-266
-263
-266
-269
-290
-309
-329
-336
-328
-306
-284
-270
-262
-256
-248
-241
-233
-224
-213
-205
-199
-192
-187
-177
-168
-157
-136
-113
-78
-49
-25
-15
-19
-42
-70
-89
-99
-106
-116
-125
-134
-128
-123
-116
-108
-99
-81
-57
-55
-49
-52
-53
-58
-64
-66
-66
-56
-24
10
38
61
81
99
104
98
89
70
48
26
17
13
-5
-14
-10
-19
-20
-10
10
27
22
5
-24
-44
-62
-84
-96
-113
-126
-134
-145
-168
-201
-227
-232
-215
-184
-145
-101
-61
-31
-2
16
29
40
50
59
73
87
100
112
115
116
117
118
115
118
115
109
97
84
75
74
73
63
52
33
18
9
3
7
17
36
53
66
71
79
85
90
94
103
103
112
116
123
130
134
136
140
142
142
143
149
158
164
171
180
185
193
210
234
255
267
273
276
272
266
242
211
186
165
151
142
135
157
197
212
203
179
173
173
156
128
104
82
76
78
96
103
93
89
92
96
115
134
146
137
136
144
158
189
223
247
268
276
271
273
271
267
260
257
257
253
247
244
236
228
220
200
192
170
69
-62
-154
-210
-224
-223
-199
-159
-105
-45
2
39
57
75
87
102
111
131
165
203
224
220
196
169
142
118
106
119
134
151
162
168
140
44
-47
-88
-78
-37
10
49
76
94
109
118
122
127
127
130
126
117
102
77
31
14
27
47
88
141
182
227
284
314
327
321
310
293
278
264
254
243
243
232
211
137
-60
-291
-449
-519
-549
-559
-564
-564
-568
-570
-569
-570
-569
-569
-568
-370
87
256
80
-173
-367
-354
-190
-58
88
404
449
528
891
981
589
504
823
894
1068
999
733
611
731
1053
1196
852
321
-81
-292
-360
-338
-271
-179
-88
-2
90
151
215
268
317
359
395
428
456
475
496
510
524
533
543
549
554
559
562
563
569
564
565
568
567
563
559
550
547
539
537
529
519
513
507
501
495
483
472
465
464
459
453
439
429
417
406
395
388
373
364
358
345
336
331
322
313
301
288
273
262
250
239
226
215
206
200
187
181
169
160
145
136
126
118
112
108
101
91
83
75
62
53
43
36
27
19
9
1
-4
-13
-21
-26
-34
-45
-49
-55
-59
-66
-74
-83
-94
-102
-112
-119
-127
-136
-138
-144
-151
-155
-161
-166
-174
-180
-185
-186
-192
-191
-195
-197
-200
-205
-213
-216
-223
-228
-232
-236
-240
-239
-240
-245
-245
-249
-256
-255
-260
-261
-265
-271
-282
-284
-289
-291
-287
-293
-293
-297
-299
-299
-300
-300
-301
-300
-298
-303
-304
-304
-307
-313
-320
-328
-326
-327
-324
-325
-324
-324
-320
-325
-326
-331
-329
-329
-329
-328
-328
-328
-330
-327
-329
-326
-326
-319
-315
-315
-310
-310
-311
-308
-309
-308
-305
-303
-305
-308
-309
-310
-311
-312
-313
-310
-315
-314
-312
-309
-309
-309
-301
-298
-300
-297
-300
-298
-294
-290
-288
-289
-288
-288
-284
-282
-282
-285
-284
-282
-281
-278
-274
-272
-267
-260
-257
-264
-271
-272
-274
-281
-270
-258
-251
-252
-255
-263
-261
-258
-254
-255
-250
-250
-248
-248
-247
-242
-240
-238
-234
-233
-230
-226
-228
-222
-217
-212
-205
-205
-205
-202
-199
-197
-197
-199
-201
-203
-202
-199
-195
-192
-189
-192
-191
-191
-184
-180
-177
-174
-175
-176
-170
-171
-168
-168
-167
-161
-158
-156
-153
-153
-148
-149
-150
-146
-150
-148
-140
-138
-134
-133
-132
-129
-130
-128
-128
-122
-119
-116
-116
-114
-116
-116
-111
-107
-105
-105
-101
-100
-103
-106
-104
-104
-105
-104
-102
-97
-96
-90
-88
-84
-82
-82
-80
-77
-75
-72
-69
-69
-71
-73
-78
-77
-81
-80
-80
-77
-69
-67
-65
-63
-52
-50
-47
-44
-42
-47
-47
-46
-45
-40
-44
-43
-40
-37
-40
-40
-38
-37
-32
-32
-30
-22
-22
-23
-21
-20
-23
-23
-23
-23
-18
-16
-14
-12
-12
-11
-12
-14
-12
-13
-11
-11
-16
-20
-25
-27
-22
-21
-20
-24
-27
-20
-22
-20
-20
-18
-21
-19
-20
-21
-20
-19
-20
-20
-16
-17
-16
-15
-13
-18
-14
-8
-10
-10
-6
-7
-5
-7
-8
-7
-3
-4
2
4
5
1
2
-2
1
0
-1
3
3
5
3
4
2
-1
0
-3
-5
-5
-9
-9
-9
-7
-7
-5
-5
-5
4
8
7
12
11
9
10
12
14
14
13
12
8
6
7
3
7
7
10
12
12
12
13
14
18
16
16
14
12
15
14
14
15
15
17
21
23
24
24
21
21
19
15
16
15
15
18
17
17
15
16
19
15
17
19
14
15
19
18
20
19
17
21
21
23
24
22
22
24
26
29
28
29
31
27
23
26
24
21
20
19
20
24
23
29
25
24
23
21
23
17
21
19
18
20
18
16
15
18
17
19
22
23
20
21
21
20
24
25
31
29
32
33
30
31
32
34
31
30
26
24
28
26
20
19
15
13
13
13
16
15
15
12
16
15
12
17
17
14
10
5
6
3
4
4
4
4
4
9
7
8
9
9
8
7
7
7
7
3
3
-1
-2
0
-4
3
5
5
5
5
3
3
4
5
5
6
4
11
12
12
16
16
16
15
17
19
20
19
17
15
15
12
13
11
13
13
12
11
11
10
12
13
9
10
7
6
6
8
9
10
10
8
9
7
12
5
3
2
3
5
5
8
2
0
0
3
1
8
10
10
12
11
11
9
7
3
1
4
-2
2
1
3
-1
5
2
5
7
7
5
5
7
7
-2
1
-1
0
3
3
1
-2
3
-1
-2
-3
-1
6
10
14
13
9
2
2
-3
-4
-4
-5
-8
-6
-4
2
2
4
6
3
1
3
0
3
4
5
7
6
5
0
-3
-5
-3
-4
-5
-2
4
0
-2
-3
-5
-4
-4
-4
-2
-1
-1
-1
-2
2
0
2
2
4
4
7
9
7
7
9
7
2
-1
0
-7
-3
-5
-2
-1
1
3
-1
2
5
1
-1
1
-3
-5
1
3
4
5
8
8
9
9
10
5
2
-3
-7
-12
-13
-9
-4
1
7
6
1
7
9
9
12
9
9
5
1
-2
-4
-4
-2
-3
1
-2
2
3
4
5
8
6
6
3
2
0
-4
-2
-5
-5
-4
-2
1
-5
-2
-6
-8
-13
-17
-20
-15
-17
-13
-12
-14
-18
-13
-12
-4
-2
-1
-3
-1
1
1
-3
-3
-5
-5
-4
-2
-5
-6
-10
-9
-12
-10
-11
-10
-8
-8
-8
-8
-7
-9
-8
-7
-10
-10
-13
-14
-9
-11
-11
-9
-12
-11
-13
-11
-11
-7
-7
-6
-6
-12
-13
-12
-13
-12
-14
-9
-11
-12
-14
-13
-11
-10
-4
-4
-5
-1
-5
-4
-5
-4
-2
-4
-1
4
5
0
-5
-13
-10
-13
-15
-17
-15
-14
-17
-13
-11
-10
-11
-12
-13
-13
-15
-17
-21
-20
-20
-18
-18
-13
-4
-5
-2
0
-1
2
-1
1
2
-7
-6
-8
-5
-4
-6
-5
-5
-7
-3
-2
-4
-4
-7
-2
-2
1
4
7
5
-4
0
-4
-6
-5
-5
-4
-5
-2
4
0
-1
-2
-7
-8
-10
-8
-8
-10
-13
-10
-12
-9
-11
-6
-2
-3
1
-3
-3
-6
-7
-8
-11
-14
-21
-25
-27
-26
-26
-22
-17
-12
-10
-5
-1
0
-3
2
-1
-3
-4
-6
-6
-8
-11
-7
-7
-9
-11
-9
-13
-10
-13
-20
-18
-21
-26
-20
-22
-22
-20
-20
-18
-18
-20
-21
-20
-14
-17
-8
-10
-7
-5
-5
-4
-1
1
-3
-4
-3
-3
-8
-6
-6
-7
-11
-12
-13
-9
-10
-7
-7
-9
-5
-6
-9
-11
-7
-5
1
4
6
6
7
7
7
12
7
1
-4
-7
-8
-8
-12
-16
-18
-21
-19
-18
-14
-12
-9
-8
-9
-8
-12
-8
-9
-11
-10
-9
-12
-12
-11
-13
-14
-15
-16
-8
-8
-2
-5
-3
-4
-6
-11
-8
-11
-11
-15
-17
-15
-14
-13
-10
-8
-7
-7
-6
-3
-5
-3
0
2
2
3
4
-3
-1
-9
-7
-8
-9
-11
-11
-8
-8
-9
-5
-5
-7
-6
-3
-4
-4
4
4
4
3
3
5
6
5
4
4
4
-1
0
-3
-5
0
-2
0
1
-5
-7
-4
-2
2
5
3
3
3
1
-2
3
4
4
1
0
-3
-4
-4
-4
-2
-3
-3
1
-3
-6
0
-7
-9
-8
-11
-9
-5
-9
-9
-8
-7
-5
-8
-10
-7
-6
-7
-9
-11
-13
-17
-21
-19
-18
-16
-16
-14
-12
-12
-10
-6
-7
-4
-1
-1
0
4
3
4
5
9
9
11
9
5
6
3
3
3
5
4
4
3
-3
-5
-2
-3
-3
1
-2
-5
-4
-9
-8
-9
-6
-3
-3
-3
-6
-13
-13
-11
-14
-14
-15
-16
-18
-16
-9
-1
1
8
10
7
8
7
6
11
8
3
3
-5
-4
-7
-7
-5
-6
-5
-10
-17
-23
-29
-34
-31
-27
-26
-20
-20
-16
-13
-15
-11
-9
-8
-5
-8
-9
-7
-7
-7
-4
-4
-1
-1
3
3
4
-4
-13
-17
-16
-20
-22
-19
-17
-18
-19
-16
-20
-21
-22
-20
-21
-20
-25
-25
-24
-24
-18
-15
-14
-9
-12
-13
-17
-17
-16
-12
-14
-9
-7
-9
-8
-12
-13
-12
-9
-9
-4
-8
-8
-8
-9
-8
-11
-6
-9
-9
-9
-7
-7
0
-3
-4
-2
-5
-6
-8
-10
-9
-7
-6
-7
-8
-8
-8
-10
-11
-9
-7
-9
-10
-12
-10
-11
-10
-12
-10
-9
-12
-8
-6
-4
-2
-3
-1
1
-1
2
4
0
5
3
-1
-2
-5
-10
-10
-11
-10
-11
-11
-11
-9
-9
-11
-13
-9
-8
-7
-7
-5
2
2
4
-2
-5
-6
-5
-3
-1
3
10
11
8
8
5
3
6
7
8
9
7
11
8
5
8
12
7
8
7
8
10
8
3
5
4
2
3
-1
-4
-8
-18
-21
-18
-19
-21
-19
-20
-21
-18
-21
-16
-16
-16
-16
-19
-14
-14
-12
-19
-19
-19
-17
-13
-11
-9
-9
-9
-7
-5
2
-1
-4
-8
-9
-8
-6
-5
-1
2
2
6
5
4
5
4
-4
-2
-1
1
3
5
4
2
0
-7
-15
-13
-12
-14
-13
-11
-11
-13
-12
-12
-10
-13
-13
-12
-13
-16
-15
-13
-13
-8
-3
1
-2
-3
2
0
-1
0
0
-1
-2
-7
-12
-15
-15
-18
-17
-21
-17
-14
-13
-14
-17
-17
-17
-13
-10
-10
-8
-7
-9
-4
-5
-6
-5
-6
-7
-11
-14
-17
-19
-25
-21
-22
-20
-14
-13
-13
-10
-13
-9
-10
-5
-7
-6
-8
-9
-11
-20
-20
-20
-24
-24
-23
-20
-19
-20
-19
-19
-19
-16
-17
-21
-18
-17
-17
-12
-13
-7
-10
-9
-7
-8
-9
-12
-8
-9
-6
-1
-3
2
3
4
4
3
4
0
-2
1
3
1
1
2
-1
-4
-2
-2
0
3
2
-3
-3
0
1
-2
-4
-5
-4
-2
-3
1
8
7
10
12
12
16
16
18
20
19
14
10
4
-4
-8
-11
-15
-18
-18
-18
-14
-9
-9
-6
-3
-1
-2
-3
1
2
1
-4
-7
-8
-13
-14
-11
-11
-7
0
6
8
11
11
13
13
11
9
9
5
1
0
-2
-1
0
-4
-5
-7
-8
-7
-10
-9
-12
-16
-14
-13
-8
-6
-2
-7
-9
-6
-9
-14
-17
-19
-18
-22
-21
-18
-15
-11
-9
-8
-5
-5
-9
-8
-6
-6
-7
-8
-12
-12
-12
-13
-12
-15
-17
-18
-19
-21
-22
-23
-20
-17
-18
-16
-21
-21
-24
-26
-25
-22
-18
-19
-23
-25
-24
-23
-23
-18
-17
-17
-12
-11
-8
-5
-2
-1
1
2
2
1
0
1
4
-4
0
1
2
4
1
-1
-1
5
7
3
4
1
-4
-4
-2
4
3
1
2
0
-2
-9
-6
-5
-4
-5
-7
-9
-9
-10
-11
-8
-8
-9
-6
-7
-7
-8
-6
-10
-14
-16
-18
-16
-12
-14
-8
-10
-12
-9
-5
-3
-6
-6
-7
-5
-5
-9
-9
-7
-10
-7
-9
-10
-7
-8
-7
-8
-7
-9
-11
-13
-11
-9
-13
-9
-11
-8
-6
-6
-4
-2
-2
-1
-2
-3
-4
-5
-3
-6
-11
-11
-13
-8
-3
-1
2
-1
-2
1
2
1
-1
1
0
-5
-9
-10
-9
-6
-5
-2
3
1
-4
-9
-17
-14
-13
-14
-14
-14
-13
-14
-20
-20
-21
-16
-10
-11
-7
-5
-6
-8
-14
-17
-17
-20
-22
-17
-17
-15
-13
-17
-11
-8
-12
-7
-8
-8
-10
-11
-10
-10
-7
-11
-12
-14
-10
-10
-9
-9
-8
-10
-8
-7
-11
-8
-7
-3
-4
-5
-2
-7
-10
-17
-16
-21
-22
-21
-20
-16
-17
-14
-15
-12
-13
-9
-9
-6
-6
-5
-6
-5
-6
-5
-6
-11
-13
-15
-15
-9
1
7
9
10
7
10
9
12
9
7
9
5
0
-3
-5
-4
-6
-5
-4
-8
-8
-8
-7
-7
-7
-7
-5
0
-2
-2
-4
-2
-6
-10
-13
-13
-10
-9
-13
-14
-19
-16
-16
-14
-15
-17
-16
-23
-20
-20
-21
-19
-20
-20
-23
-16
-15
-13
-13
-13
-15
-14
-13
-13
-13
-10
-11
-13
-16
-18
-17
-17
-14
-14
-15
-17
-21
-18
-15
-13
-16
-13
-10
-13
-12
-14
-13
-13
-11
-9
-10
-5
-8
-4
-3
-5
1
-2
1
-1
0
1
4
5
6
2
3
0
0
-2
-2
-2
-4
-5
2
0
1
1
0
-2
-2
-1
-1
3
4
5
2
5
0
-4
-6
-8
-9
-3
0
2
4
3
3
4
8
5
3
2
0
-1
-1
-2
0
-4
0
2
3
-1
0
1
3
5
8
8
6
5
8
7
8
4
3
1
-5
-8
-7
-9
-10
-17
-18
-22
-20
-16
-17
-19
-17
-18
-17
-15
-13
-15
-13
-12
-12
-13
-13
-17
-13
-5
2
6
7
5
5
-1
-2
-3
-4
-5
-6
-8
-9
-8
-9
-10
-11
-12
-10
-13
-12
-16
-19
-18
-16
-17
-12
-11
-10
-10
-10
-9
-6
-7
-8
-8
-13
-10
-9
-6
-9
-7
-11
-15
-12
-17
-12
-11
-12
-12
-9
-15
-14
-17
-17
-14
-14
-12
-11
-11
-9
-9
-9
-13
-12
-8
-8
-6
-4
-6
-4
-5
-4
-6
-11
-13
-16
-16
-15
-17
-13
-12
-11
-9
-10
-11
-11
-11
-8
-8
-6
-2
-2
0
-3
-6
-3
-4
-5
-9
-8
-5
-5
-3
-3
-3
-2
-5
-5
-5
0
-2
-2
-5
-8
-7
-10
-12
-13
-15
-17
-17
-18
-17
-18
-19
-19
-19
-17
-17
-15
-12
-11
-10
-11
-13
-12
-17
-17
-9
-9
-7
-7
-6
-7
-8
-4
-3
-3
-5
-5
-9
-5
-7
-6
-6
-9
-9
-10
-9
-8
-8
-5
-3
-1
3
-2
-4
-3
-5
-5
-4
-5
-5
-3
0
-4
-2
-3
-3
1
-1
-1
-4
-2
-2
-4
-4
-7
-7
-6
-4
-3
-4
-3
-5
-4
-4
-2
-5
-1
-3
-2
-3
-2
-1
1
2
3
0
-1
-4
-3
-1
2
-6
-9
-13
-13
-13
-14
-14
-13
-11
-11
-10
-6
-6
-5
-5
-4
-5
-6
-5
-4
-3
1
2
1
-2
2
5
2
-1
1
1
2
1
2
4
3
1
4
4
4
4
1
-6
-9
-14
-14
-18
-17
-17
-13
-9
-4
-7
-5
-7
-6
-3
2
2
3
2
-1
-3
-5
-3
-4
-10
-14
-16
-18
-20
-21
-24
-24
-20
-13
-15
-9
-10
-9
-10
-10
-14
-17
-12
-13
-11
-12
-14
-14
-15
-15
-14
-13
-11
-13
-12
-17
-17
-19
-17
-19
-16
-12
-7
-8
-9
-11
-8
-10
-8
-6
-9
-7
-10
-13
-13
-8
-9
-7
-9
-5
-5
-4
-8
-11
-8
-4
-7
-6
-9
-11
-12
-13
-9
-7
-4
1
-1
-7
-11
-14
-10
-10
-9
-13
-11
-8
-8
-8
-11
-8
-13
-15
-19
-19
-18
-17
-14
-18
-15
-14
-14
-12
-10
-6
-6
-4
-2
2
1
3
1
2
-5
-4
-4
-6
-8
-10
-13
-11
-10
-11
-9
-12
-12
-15
-15
-16
-16
-14
-15
-14
-15
-15
-13
-7
-7
-8
-9
-4
-7
-8
-9
-12
-8
-11
-9
-2
-2
-2
-1
2
-1
1
0
2
3
3
4
6
4
2
0
-5
-3
-5
-2
1
-1
-1
4
2
3
3
6
4
-2
1
-1
1
0
-4
-9
-14
-17
-20
-20
-18
-20
-17
-19
-17
-14
-9
-8
-3
-2
-1
-5
-3
-2
-3
-7
-4
-7
-10
-10
-10
-10
-10
-9
-8
-7
-2
2
7
6
2
-1
-5
-6
-10
-13
-15
-17
-17
-19
-18
-18
-23
-19
-20
-19
-19
-20
-14
-13
-14
-14
-17
-16
-14
-11
-11
-10
-10
-10
-13
-15
-16
-17
-15
-12
-8
-9
-11
-13
-9
-6
-4
-5
-4
-4
-3
-4
-5
-2
0
-3
-5
-9
-9
-10
-9
-9
-11
-9
-14
-12
-17
-18
-16
-16
-12
-10
-13
-9
-9
-6
-10
-12
-12
-13
-7
-7
-4
-5
-3
-1
-5
-2
-6
-6
-5
-6
-5
-3
-2
-2
-5
-3
-6
-8
-9
-11
-10
-10
-11
-4
-4
-7
-5
-5
0
6
6
6
8
4
-1
-3
-3
-4
-3
1
2
4
1
1
2
1
-1
0
-3
-3
-7
-9
-11
-8
-4
-5
1
6
8
7
5
8
10
11
11
8
9
8
5
2
4
-3
-4
-3
-6
-15
-15
-19
-21
-20
-25
-25
-27
-26
-21
-15
-13
-13
-15
-12
-14
-15
-18
-16
-12
-15
-16
-16
-12
-12
-15
-17
-14
-19
-17
-16
-14
-15
-18
-20
-13
-12
-11
-14
-10
-14
-7
-12
-14
-12
-13
-8
-10
-13
-13
-12
-9
-9
-5
-2
2
3
1
1
0
-4
-5
-2
-4
-4
-5
-8
-6
-7
-9
-12
-9
-5
-7
-7
-5
-4
-3
-5
0
-5
-6
-8
-7
-1
-1
-4
-7
-7
-9
-8
-8
-8
-9
-9
-10
-9
-10
-8
-6
-7
-10
-8
-7
-5
-5
0
-3
-3
-5
-8
-9
-10
-12
-11
-9
-10
-13
-10
-9
-5
-1
1
3
3
3
2
1
0
-2
5
2
5
3
2
5
5
3
-2
-4
-9
-9
-11
-11
-13
-6
-7
-6
-5
-9
-9
-7
-10
-10
-7
-4
-4
-4
-13
-11
-12
-13
-14
-19
-19
-15
-13
-13
-8
-5
-5
-4
-2
-1
-3
-1
-2
-5
-3
-7
-5
-4
-5
-3
-4
-9
-7
-7
-5
-2
-3
-1
-5
-6
-11
-9
-11
-10
-10
-9
-10
-8
-9
-12
-14
-13
-14
-13
-13
-10
-12
-11
-10
-8
-10
-9
-9
-6
-6
-12
-14
-13
-11
-6
-8
-8
-9
-9
-11
-10
-13
-13
-11
-9
-9
-5
3
3
4
1
0
-5
-9
-13
-12
-11
-9
-2
5
4
3
1
0
-2
-7
-9
-9
-7
-4
-5
-3
-3
-4
-10
-13
-17
-21
-21
-20
-21
-20
-20
-18
-15
-14
-10
-9
-11
-13
-13
-18
-20
-19
-21
-18
-17
-18
-16
-17
-11
-10
-10
-8
-11
-14
-12
-15
-14
-14
-13
-13
-10
-11
-12
-15
-10
-8
-10
-10
-10
-10
-18
-19
-20
-18
-20
-19
-19
-13
-14
-13
-12
-11
-7
-7
-7
-6
-7
-7
-6
-4
-6
-2
3
8
8
10
7
5
6
6
4
4
1
2
-2
-5
-6
-7
-6
-8
-7
-9
-11
-11
-15
-14
-17
-16
-16
-16
-17
-17
-19
-16
-13
-13
-17
-14
-14
-15
-20
-17
-15
-12
-9
-13
-12
-13
-12
-13
-15
-10
-10
-5
-6
-1
-1
0
-1
-5
-6
-8
-10
-8
-8
-9
-5
-1
-2
0
-3
-2
-7
-8
-7
-8
-2
-4
-5
-4
-9
-11
-10
-8
-7
-4
0
5
5
3
8
3
3
4
3
-1
-4
-4
0
-3
0
0
-4
-7
-5
-2
-5
-10
-10
-4
-4
-5
-7
-2
-3
-2
-4
-8
-7
-7
-6
-7
-9
-13
-10
-6
-5
-4
-6
-6
-7
-10
-13
-12
-8
-9
-11
-10
-8
-9
-10
-11
-11
-12
-11
-10
-9
-13
-10
-13
-14
-17
-14
-13
-8
-3
4
7
6
8
10
11
12
12
12
7
8
6
4
4
3
-1
2
3
4
2
-5
-6
-6
-7
-7
1
1
-2
-4
-2
-9
-10
-9
-7
-9
-9
-5
-5
-6
-8
-9
-11
-10
-13
-13
-7
-8
-9
-11
-13
-8
-9
-9
-7
-7
-4
-8
-12
-18
-22
-19
-21
-21
-18
-19
-15
-13
-11
-10
-11
-8
-9
-8
-11
-12
-11
-8
-6
-5
-9
-9
-8
-11
-8
-12
-15
-15
-18
-17
-15
-14
-12
-12
-6
-11
-8
-13
-15
-14
-14
-8
-7
-7
2
-1
0
1
2
1
3
4
4
3
4
1
-6
-10
-9
-9
-11
-11
-8
-10
-11
-13
-15
-10
-7
-7
-5
-1
-2
-6
-8
-4
-10
-12
-13
-12
-14
-10
-9
-4
1
0
-2
-5
-6
-6
-8
-13
-12
-17
-19
-15
-17
-17
-12
-13
-11
-14
-15
-12
-11
-7
-10
-10
-13
-12
-12
-10
-10
-11
-13
-11
-12
-8
-4
-1
2
1
5
2
3
2
-1
-4
-6
-10
-12
-14
-15
-14
-13
-17
-11
-15
-15
-12
-18
-17
-16
-12
-9
-6
-5
-5
-4
-4
-5
-7
-4
-3
-2
-5
-5
-3
-2
-6
-5
-5
-5
-7
-9
-8
-9
-6
-8
-6
-4
-4
-6
-11
-12
-11
-10
-16
-12
-15
-17
-12
-13
-11
-10
-12
-11
-8
-9
-8
-8
-6
-8
-6
-4
-4
-3
-2
0
-4
-7
-3
-1
1
3
7
8
4
2
-2
-8
-4
-4
2
3
-1
-2
0
1
-3
1
-5
-5
-6
0
-2
-2
-4
-5
-8
-10
-9
-7
-6
-5
-6
-4
-7
-7
-10
-12
-13
-14
-16
-17
-18
-14
-16
-12
-16
-19
-15
-13
-10
-14
-12
-17
-19
-21
-20
-19
-18
-20
-17
-17
-18
-18
-16
-14
-14
-9
-9
-6
-2
4
6
5
7
0
-9
-14
-12
-12
-11
-10
-9
-3
-4
1
5
8
5
9
8
12
10
10
1
-3
-6
-8
-10
-12
-12
-10
-7
-7
-5
-8
-8
-6
-9
-6
-4
-4
-6
-5
-5
-5
-4
-6
-5
-6
-6
-8
-11
-9
-8
-9
-12
-9
-11
-9
-9
-11
-7
-6
-4
-10
-7
-5
0
-1
0
0
-4
-2
-4
-5
-9
-5
-7
-8
-8
-7
-6
-8
-11
-9
-17
-15
-14
-16
-17
-15
-12
-17
-16
-20
-19
-20
-21
-12
-13
-13
-13
-8
-11
-8
-8
-9
-9
-9
-9
-13
-13
-15
-12
-11
-12
-8
-4
-1
-1
-5
-9
-13
-17
-17
-14
-15
-14
-16
-10
-10
-9
-7
-9
-10
-7
-10
-9
-6
-8
-7
-2
-5
-4
1
3
2
3
4
1
0
-3
-3
-1
-2
-2
3
8
10
9
7
10
11
8
3
-3
-3
-8
-10
-14
-17
-18
-19
-14
-13
-13
-14
-11
-13
-12
-9
-13
-13
-10
-13
-14
-7
-9
-7
-4
-2
7
7
8
6
4
1
2
1
-1
-1
-1
0
2
-2
-8
-10
-11
-8
-8
-13
-12
-14
-12
-11
-9
-9
-9
-9
-11
-11
-12
-13
-14
-10
-11
-10
-7
-5
-6
-9
-11
-14
-16
-17
-15
-12
-11
-13
-9
-8
-10
-6
-6
-7
-8
-7
-9
-12
-12
-16
-16
-14
-14
-12
-10
-12
-13
-16
-17
-15
-16
-19
-16
-16
-12
-13
-11
-10
-7
-7
-6
-9
-13
-14
-10
-13
-12
-16
-12
-8
-8
-7
-5
-6
-5
-7
-6
-8
-11
-8
-9
-11
-10
-11
-10
-7
-5
-4
-5
-6
-7
-8
-9
-6
-9
-12
-14
-15
-11
-8
-6
-4
-3
-5
-4
-8
-7
-10
-9
-6
-9
-8
-10
-11
-13
-15
-18
-16
-13
-12
-12
-9
-9
-9
-9
-10
-9
-12
-8
-8
-7
-4
-3
-4
-6
-8
-7
-6
-7
-4
1
3
3
2
6
6
5
9
6
3
0
-4
-6
0
-2
-4
-3
-2
1
-3
-2
-3
-6
-6
-7
-2
-6
-9
-10
-13
-7
-10
-3
0
7
11
12
13
16
9
9
11
9
7
6
7
3
-1
3
5
5
8
6
7
5
3
3
3
-1
-4
-6
-11
-13
-11
-10
-12
-10
-13
-13
-12
-15
-15
-18
-18
-20
-18
-15
-18
-18
-17
-17
-19
-18
-17
-12
-11
-11
-13
-12
-11
-17
-13
-17
-13
-13
-11
-13
-11
-10
-11
-11
-12
-12
-12
-14
-9
-10
-12
-14
-12
-14
-16
-17
-12
-15
-18
-15
-15
-13
-12
-10
-6
-7
-5
-8
-8
-9
-11
-11
-12
-16
-17
-15
-14
-13
-14
-15
-16
-18
-16
-15
-15
-16
-14
-13
-14
-15
-16
-20
-26
-26
-22
-17
-18
-19
-14
-13
-15
-16
-13
-12
-8
-7
-2
4
0
1
4
6
3
3
-3
-4
-9
-5
-7
-9
-6
-10
-8
-5
-6
-6
-7
-6
-8
-17
-18
-19
-17
-17
-12
-9
-14
-12
-10
-12
-8
-8
-7
-9
-12
-12
-15
-14
-14
-10
-12
-12
-9
-11
-12
-9
-16
-11
-10
-8
-3
-3
-2
1
0
-5
5
7
7
6
8
3
4
2
-1
-4
-5
-4
-9
-5
-2
-2
-5
-2
1
-2
2
1
-3
-1
-3
-3
-6
-5
-5
-3
-4
-3
1
8
3
6
5
-1
-1
0
0
-1
-3
-7
-9
-8
-8
-7
-8
-6
-7
-7
-4
-5
-1
-3
3
-3
-5
-5
-5
-8
-7
-8
-7
-4
-5
-6
-5
-7
-7
-7
-9
-7
-4
-4
-7
-5
-8
-7
-8
-8
-8
-10
-14
-13
-12
-11
-9
0
2
5
4
-1
-4
-9
-7
-7
-6
-7
-9
-6
-8
-4
-7
-6
-8
-9
-14
-8
-10
-10
-10
-9
-6
-8
-7
-8
-9
-6
-6
-5
-9
-10
-11
-9
-7
-5
-6
-4
-5
-2
1
-2
-2
-5
-8
-9
-8
-8
-6
-7
-5
-4
-2
6
18
44
108
223
363
400
285
130
50
52
62
68
46
35
22
13
3
-15
-38
-58
-80
-93
-88
-78
-76
-81
-75
-78
-79
-80
-78
-74
-71
-69
-67
-64
-69
-72
-72
-69
-71
-75
-86
-94
-108
-108
-99
-93
-74
-61
-49
-29
-13
-7
-8
-7
2
4
3
0
0
5
1
-9
-14
-12
-15
-15
-16
-15
-16
-16
-14
-17
-23
-19
-14
-14
-13
-15
-22
-26
-33
-36
-38
-41
-36
-34
-31
-17
-6
-1
11
23
29
34
36
33
28
24
16
10
1
1
-7
-14
-16
-16
-22
-21
-15
-10
-9
-4
4
6
4
2
-7
-8
-29
-36
-35
-24
-8
-3
-9
-12
-7
-5
-15
-18
-9
6
17
23
27
24
16
8
4
-5
-4
-4
-6
-6
-4
-7
-12
-11
-4
-3
-2
4
3
-7
-4
0
3
3
-2
4
10
13
13
15
16
15
7
4
-1
-5
-6
-8
-10
-12
-16
-18
-8
-8
-7
-8
-8
-7
-7
-7
-9
-7
-12
-13
-16
-16
-17
-18
-17
-13
-13
-7
-8
-8
-7
-6
-8
-11
-16
-19
-18
-21
-17
-19
-19
-20
-17
-7
-44
-52
-30
-18
-21
-22
-19
-20
-28
-34
-22
-28
-23
-14
-9
-10
-13
-20
-19
-11
-8
-10
-13
-10
-6
-4
-8
-7
-7
-6
-9
-12
-14
-16
-18
-18
-18
-20
-23
-19
-19
-23
-21
-20
-17
-17
-17
-15
-16
-15
-14
-17
-17
-19
-19
-19
-19
-19
-18
-13
-14
-14
-11
-9
-8
-7
-10
-11
-11
-15
-11
-14
-14
-8
-7
-4
-3
-2
-4
7
14
16
22
26
27
32
32
35
28
15
15
8
5
4
-3
-7
-12
-13
-20
-53
-68
-62
-54
-45
-33
-25
-16
-8
7
20
33
32
22
-1
-2
-3
-6
-11
-12
-10
-9
0
-2
1
3
7
7
8
7
9
10
12
13
14
14
16
15
18
21
24
26
27
34
52
87
123
132
114
83
56
32
7
-19
-32
-48
-64
-75
-95
-118
-130
-123
-102
-86
-64
-45
-31
-25
-18
-2
12
30
40
49
53
51
38
15
-2
-14
-19
-21
-16
-14
-9
-19
-32
-29
-26
-17
-5
6
12
17
29
34
31
25
15
12
2
0
-10
-12
-18
-14
-17
-20
-20
-18
-18
-16
-14
-8
-8
-10
-9
-10
-10
-9
-9
-10
-13
-9
-16
-13
-15
-18
-18
-18
-18
-18
-20
-14
-10
-8
-5
-5
-5
-1
1
-1
-8
-8
-12
-10
-12
-12
-13
-22
-31
-20
11
36
45
48
33
28
26
23
19
20
13
13
17
19
18
13
5
-5
-9
-11
-13
-9
-10
-13
-19
-17
-17
-20
-20
-21
-21
-23
-22
-21
-22
-20
-24
-21
-19
-19
-16
-12
-11
-7
-8
-8
-11
-14
-17
-15
-19
-18
-19
-20
-22
-22
-20
-17
-19
-22
-19
-33
-55
-26
5
14
4
-2
-10
-6
-2
1
4
8
7
6
-2
-3
-1
5
8
6
6
2
-5
-5
-10
-9
-13
-14
-15
-17
-18
-22
-23
-25
-24
-19
-16
-19
-14
-14
-13
-13
-11
-9
-5
-4
-4
-5
-2
7
10
2
-2
-5
-7
-13
-12
-15
-8
-11
-10
-12
-15
-19
-19
-23
-25
-20
-19
-21
-17
-10
-13
-8
-10
-7
-7
-6
-13
-4
-1
0
-4
-7
-6
-10
-9
-10
-9
-8
-9
-13
-12
-12
-14
-9
-8
-10
-8
-11
-7
-6
-7
-10
-11
-10
0
12
2
-3
-4
2
2
3
5
6
3
2
2
-2
-2
-8
-11
-10
-12
-10
-10
-12
-14
-10
-9
-8
-13
-17
-17
-18
-20
-19
-18
-13
-9
0
-3
-8
-8
-8
-12
-14
-16
-15
-11
-17
-12
-12
-11
-10
-12
-10
-12
-11
-10
-10
-14
-17
-15
-15
-11
-10
-13
-9
-2
-1
-3
-4
-3
-5
-2
-7
-5
-1
0
-5
-9
-13
-12
-7
-8
-13
-12
-13
-9
-11
-9
-11
-10
-8
-7
-5
-2
-2
1
0
4
-2
-6
-10
-8
-13
-12
-13
-14
-18
-24
-24
-25
-23
-25
-26
-27
-24
-25
-22
-21
-27
-20
-2
11
10
21
25
23
15
16
11
14
15
13
8
3
0
0
-6
1
-13
-14
-20
-23
-16
-17
-15
-10
-11
-17
-25
-31
-44
-69
-107
-138
-154
-147
-120
-98
-67
-42
-20
-7
3
13
11
13
10
8
7
12
13
17
18
18
23
22
28
29
34
36
35
35
34
29
28
24
20
18
11
12
14
13
16
13
11
12
9
10
8
5
8
9
10
10
8
7
9
10
7
14
12
11
9
6
3
0
2
-4
-3
-4
-5
-5
-9
-11
-13
-11
-13
-13
-12
-15
-12
-13
-16
-17
-17
-18
-17
-18
-16
-16
-16
-14
-9
-9
-6
-3
-5
-4
-1
2
0
-3
-5
-7
-4
-7
-8
-7
-1
-1
1
-2
4
3
4
4
2
1
0
-1
1
0
1
-3
-5
-4
-4
-4
-2
2
8
12
16
12
10
1
-17
-64
-128
-208
-289
-415
-541
-605
-555
-533
-581
-649
-677
-692
-701
-699
-700
-701
-701
-698
-703
-646
-433
-205
-27
93
160
194
206
207
201
192
180
161
133
98
38
-43
-126
-196
-259
-304
-360
-407
-456
-500
-537
-568
-601
-627
-648
-667
-684
-694
-698
-691
-419
256
798
1031
1142
1189
1214
1223
1229
1233
1235
1232
1231
1233
1236
1234
1237
1234
1234
1236
1234
1236
1233
1235
1233
1233
1236
1234
999
403
-178
-472
-597
-659
-682
-693
-649
-362
68
489
836
1072
1152
1187
980
764
659
663
721
811
900
984
1056
1119
1174
1207
1219
1228
1232
1234
1234
1233
1234
1233
1236
1237
1231
1235
1232
1234
1227
1213
1192
1169
1148
1121
1101
1077
1054
1036
1012
990
967
945
921
898
875
851
829
808
781
752
728
705
681
655
633
607
575
550
523
495
470
449
425
404
380
361
335
308
290
265
242
219
199
177
153
135
115
97
76
57
40
22
9
-8
-26
-44
-62
-78
-99
-116
-130
-146
-161
-174
-187
-203
-211
-223
-232
-247
-261
-273
-290
-303
-315
-328
-338
-348
-360
-369
-381
-391
-406
-419
-425
-432
-440
-451
-456
-465
-472
-481
-489
-496
-507
-510
-524
-526
-530
-532
-541
-544
-549
-559
-560
-565
-570
-576
-586
-589
-594
-597
-599
-603
-606
-612
-619
-623
-630
-634
-636
-641
-640
-646
-649
-652
-655
-656
-655
-657
-661
-660
-662
-662
-663
-660
-661
-661
-663
-660
-661
-666
-665
-662
-662
-665
-665
-668
-670
-674
-670
-672
-671
-667
-664
-662
-661
-661
-660
-660
-663
-660
-657
-656
-656
-657
-658
-661
-660
-657
-658
-655
-653
-646
-647
-640
-638
-638
-640
-639
-631
-622
-621
-620
-623
-621
-616
-615
-611
-607
-605
-603
-601
-603
-599
-597
-595
-589
-586
-582
-577
-570
-568
-564
-557
-551
-546
-542
-540
-542
-539
-538
-536
-533
-532
-528
-523
-519
-517
-510
-510
-507
-505
-500
-494
-493
-482
-478
-470
-473
-467
-465
-457
-450
-447
-442
-439
-435
-432
-435
-432
-428
-422
-416
-410
-406
-403
-399
-400
-397
-392
-393
-384
-381
-374
-369
-367
-361
-358
-354
-352
-348
-344
-340
-339
-338
-334
-333
-327
-323
-313
-310
-305
-300
-291
-292
-286
-281
-280
-277
-275
-269
-266
-264
-260
-257
-255
-253
-244
-237
-224
-218
-209
-209
-209
-206
-205
-207
-204
-208
-203
-202
-198
-192
-192
-187
-184
-183
-178
-172
-164
-160
-154
-148
-146
-143
-140
-137
-135
-131
-128
-123
-119
-112
-108
-105
-104
-104
-104
-107
-100
-99
-96
-99
-97
-95
-89
-88
-85
-87
-87
-87
-79
-76
-71
-62
-60
-64
-64
-63
-59
-60
-61
-63
-65
-65
-64
-63
-61
-56
-55
-54
-50
-48
-44
-43
-39
-41
-38
-39
-37
-31
-30
-25
-25
-23
-23
-21
-19
-18
-19
-19
-20
-18
-19
-19
-17
-19
-12
-8
-10
-4
-6
-5
-5
1
1
7
6
9
10
10
10
14
10
11
16
17
23
25
28
27
28
28
30
33
35
38
40
41
41
40
38
33
32
33
34
34
34
37
40
39
44
48
51
54
56
56
51
50
48
49
48
51
56
60
59
55
56
56
57
59
61
65
77
108
142
161
162
171
182
172
132
92
75
56
33
-10
-46
-123
-182
-111
-32
12
49
72
90
100
104
104
89
80
79
77
72
58
45
30
21
22
28
28
23
21
19
16
19
18
16
16
23
28
36
43
54
59
63
67
69
70
65
64
65
64
66
72
73
75
76
71
69
63
49
38
22
14
12
12
14
19
31
38
49
55
63
68
70
68
65
64
60
62
59
54
55
59
57
63
74
84
88
83
76
68
60
52
48
38
22
-10
-42
-61
-48
-22
-2
16
38
50
57
61
66
67
67
68
76
53
31
50
92
114
114
97
79
68
59
59
50
49
47
47
47
48
51
45
47
44
41
36
36
38
32
21
20
20
18
19
21
26
23
23
24
23
23
24
25
23
23
23
24
23
22
24
22
26
23
23
22
24
27
35
40
40
39
37
35
34
26
22
20
19
20
14
13
13
12
12
11
14
18
28
36
50
60
59
56
50
39
36
33
31
30
35
24
1
3
11
6
5
-6
-17
-34
-41
-23
-21
-20
-34
-20
-4
18
37
35
57
44
4
-10
13
46
66
67
54
16
-28
-47
-28
-39
-47
-16
-25
-61
-51
-25
1
30
44
47
46
24
-2
-9
-5
3
15
23
33
42
43
42
39
37
37
37
34
32
25
24
24
19
20
21
24
26
28
25
23
21
21
15
14
12
10
9
7
8
9
6
5
7
9
12
14
12
10
7
5
6
5
8
16
13
16
16
13
9
10
12
11
11
7
3
4
-1
-6
-11
-14
-19
-13
-9
-3
-1
6
8
9
6
4
-5
-11
-12
-22
-28
-32
-31
-24
-17
-8
3
14
13
12
18
22
24
21
17
-7
-19
-17
-4
7
9
9
19
34
39
42
34
18
7
2
4
6
-2
-5
-6
-4
-1
11
15
17
17
17
12
11
3
-6
-13
-17
-16
-11
-10
-9
-9
-7
-7
-6
-11
-7
-3
-6
0
-5
0
-2
-3
0
-1
1
4
8
12
18
24
26
28
27
28
23
21
15
13
12
8
5
4
4
3
1
2
-3
-9
-9
-11
-10
-12
-9
-13
-13
-12
-8
-9
-9
-4
-1
3
2
1
2
3
8
3
5
1
-5
-3
1
-5
-4
-4
-5
-5
-4
-9
-6
-5
-7
-7
-9
-13
-14
-14
-9
-7
-3
-5
-5
-7
-5
-8
-8
-9
-11
-10
-7
-5
-7
-11
-15
-14
-13
-8
-11
-15
-10
-8
-9
-8
-6
-6
-8
-7
-10
-10
-6
-4
-9
-6
-4
-6
-6
-7
-11
-15
-14
-17
-18
-17
-16
-16
-19
-18
-15
-13
-15
-13
-12
-12
-15
-13
-15
-13
-14
-18
-17
-13
-14
-10
-8
-6
-7
-5
-4
-7
-3
-2
-4
-4
0
3
0
-4
-5
-5
-6
-8
-9
-9
-8
-2
3
3
7
11
15
15
12
12
11
12
12
9
-2
-5
-5
-9
-6
-6
-3
-6
-7
-12
-10
-13
-12
-13
-14
-14
-13
-13
-14
-12
-15
-13
-11
-10
-10
-9
-8
-6
-4
-3
-4
-4
-7
-5
-5
-6
-9
-13
-8
-8
-9
-7
-9
-7
-5
-4
-8
-9
-10
-11
-15
-14
-17
-17
-17
-18
-13
-9
-7
-7
-8
-8
-8
-9
-8
-10
-4
-7
-7
-3
-4
-6
-10
-12
-16
-21
-18
-19
-15
-15
-14
-9
-4
1
5
2
6
3
3
-2
-5
-5
-7
-11
-15
-18
-16
-18
-18
-21
-17
-16
-14
-18
-19
-16
-13
-11
-12
-15
-18
-15
-15
-19
-11
-9
-7
-6
-12
-13
-15
-10
-11
-9
-7
-9
-10
-11
-6
-3
1
4
3
5
4
6
5
6
7
9
5
4
2
-3
-5
-1
-3
-2
2
-4
-7
-6
-6
-4
-6
-4
-5
-5
-1
-5
-7
-12
-16
-14
-13
-13
-10
-8
-8
-10
-6
-6
-8
-11
-10
-11
-15
-15
-15
-12
-12
-14
-13
-11
-12
-12
-11
-12
-12
-11
-11
-17
-16
-18
-17
-13
-10
-5
-1
1
3
6
5
6
6
6
5
4
4
-2
-2
-1
0
1
5
5
8
6
4
4
0
2
-4
-8
-10
-16
-21
-25
-25
-23
-22
-22
-21
-17
-14
-13
-16
-13
-16
-13
-12
-10
-11
-10
-9
-10
-14
-14
-13
-12
-12
-11
-7
-10
-13
-9
-8
-4
-7
-5
-5
-5
-9
-9
-9
-8
-9
-12
-11
-10
-13
-14
-17
-18
-17
-22
-20
-23
-22
-18
-20
-13
-10
-8
-8
-12
-14
-15
-14
-11
-11
-7
-9
-9
-9
-8
-13
-18
-17
-17
-17
-17
-17
-11
-10
-13
-9
-9
-7
-8
-7
-8
-7
-6
-5
-6
-5
-8
-8
-9
-9
-7
-6
-3
2
-1
-5
-3
-1
-4
-2
-6
-7
-8
-5
-3
-1
8
4
3
0
2
0
-2
-6
-7
-9
-8
-5
-8
-8
-7
-6
-7
-5
-7
-3
-2
0
2
2
1
-2
3
3
0
0
-3
-1
5
6
6
8
6
7
4
3
4
6
4
1
2
5
1
-3
-2
1
5
4
7
1
0
-1
-5
-2
0
-1
0
0
0
-3
2
-4
2
3
3
-1
-3
-5
-2
-4
-6
-9
-15
-14
-17
-19
-18
-21
-20
-24
-21
-18
-16
-17
-16
-10
-9
-8
-10
-13
-9
-7
-9
-6
-2
-4
-7
-7
-4
-3
-1
2
2
6
4
-2
-4
-5
-9
-10
-9
-10
-8
-9
-12
-13
-9
-8
-6
-9
-7
-6
-3
-6
-7
-11
-9
-10
-11
-9
-7
-6
-10
-11
-11
-17
-15
-11
-14
-10
-9
-6
-8
-4
-3
-4
-4
-3
-2
-6
-5
-5
0
1
1
2
2
0
0
-5
-6
-6
-2
5
5
6
6
3
1
-1
-4
-8
-11
-11
-14
-14
-14
-13
-13
-10
-13
-15
-16
-17
-19
-16
-20
-19
-21
-21
-16
-12
-9
-5
-5
-7
-12
-11
-17
-11
-12
-13
-16
-12
-17
-13
-12
-15
-8
-13
-10
-9
-9
-10
-11
-9
-10
-7
-4
-4
-5
-8
-10
-14
-13
-10
-13
-10
-5
0
4
7
11
9
10
12
6
7
6
4
3
3
-4
-4
-10
-8
-5
-8
-13
-12
-13
-14
-22
-23
-30
-31
-37
-63
-101
-161
-224
-277
-339
-376
-352
-389
-455
-465
-434
-369
-205
-66
19
76
172
195
181
129
118
82
30
-90
-217
-287
-281
-54
399
778
715
330
-159
-473
-386
-44
141
79
-130
-292
-265
-165
-81
-53
-69
-115
-162
-185
-196
-177
-158
-143
-129
-121
-153
-217
-169
-114
-222
-308
-253
-69
82
271
405
360
254
152
109
83
-49
-297
-500
-591
-587
-544
-454
-360
-295
-255
-243
-235
-186
-136
-98
-82
-67
-46
-32
-16
-28
-29
-24
-19
-17
-7
-10
-3
4
-2
-8
-24
-43
-31
5
32
37
30
-9
-89
-202
-370
-556
-658
-643
-468
-324
-188
-94
-30
15
18
-12
-52
-103
-138
-157
-155
-129
-96
-63
-36
-8
6
23
41
69
100
120
123
120
101
96
99
101
260
355
345
294
237
199
186
175
163
147
116
87
100
106
-116
-449
-614
-682
-700
-610
-456
-324
-218
-139
-85
-45
-14
13
22
30
34
37
28
-27
-115
-206
-293
-366
-434
-482
-510
-529
-549
-546
-542
-532
-526
-508
-498
-497
-511
-522
-539
-547
-568
-585
-602
-625
-646
-678
-707
-727
-733
-737
-739
-740
-736
-739
-737
-740
-739
-736
-739
-740
-741
-740
-738
-741
-739
-741
-741
-738
-740
-737
-739
-741
-741
-738
-741
-739
-729
-717
-716
-700
-679
-664
-650
-641
-626
-615
-606
-596
-584
-573
-564
-548
-536
-512
-495
-485
-474
-458
-437
-410
-381
-356
-336
-315
-292
-272
-257
-236
-223
-218
-208
-196
-179
-162
-139
-125
-113
-84
-53
-24
-3
14
32
46
61
87
114
142
172
202
235
266
286
312
342
374
404
432
469
519
575
643
734
856
1010
1113
1157
1175
1067
911
768
657
577
525
486
457
437
420
405
376
338
314
296
282
268
259
257
254
257
259
266
269
270
262
261
276
321
493
768
931
908
742
538
338
211
112
46
33
70
132
208
278
346
409
462
512
554
596
629
659
684
706
720
733
750
761
777
790
795
803
807
808
807
804
802
799
794
792
789
783
779
771
766
757
754
743
737
730
722
713
704
697
686
676
666
658
648
635
625
612
598
591
576
564
555
548
540
526
514
504
494
485
475
465
455
445
432
420
408
396
385
374
367
355
337
317
308
294
282
272
259
256
242
233
221
209
196
190
179
172
168
158
151
140
130
116
107
99
94
88
76
70
61
57
45
36
26
16
10
1
-7
-12
-18
-24
-32
-40
-52
-56
-60
-66
-73
-87
-92
-100
-107
-114
-116
-123
-127
-134
-138
-151
-156
-166
-173
-175
-175
-175
-174
-178
-185
-186
-192
-197
-201
-205
-210
-213
-213
-217
-216
-218
-226
-228
-231
-235
-236
-239
-242
-248
-249
-253
-251
-253
-255
-259
-265
-264
-267
-265
-269
-272
-275
-276
-280
-281
-278
-279
-277
-282
-287
-292
-295
-296
-301
-300
-305
-304
-312
-308
-312
-313
-312
-312
-312
-310
-307
-309
-310
-303
-298
-293
-288
-287
-290
-291
-291
-291
-289
-289
-292
-291
-291
-295
-292
-298
-296
-294
-297
-292
-295
-294
-292
-290
-285
-284
-287
-290
-291
-287
-287
-292
-291
-294
-291
-292
-288
-290
-290
-286
-285
-285
-279
-283
-281
-282
-282
-283
-285
-287
-286
-287
-283
-283
-280
-278
-277
-277
-271
-268
-266
-263
-260
-258
-256
-252
-252
-257
-258
-256
-256
-257
-256
-256
-251
-248
-249
-248
-249
-247
-246
-243
-241
-241
-237
-235
-237
-233
-233
-230
-226
-223
-224
-222
-218
-210
-210
-212
-213
-216
-215
-213
-215
-211
-207
-205
-200
-200
-200
-199
-198
-196
-188
-184
-184
-180
-183
-178
-177
-173
-172
-174
-176
-176
-175
-174
-174
-173
-163
-156
-153
-144
-140
-136
-134
-136
-137
-138
-132
-130
-128
-127
-123
-122
-121
-122
-122
-124
-124
-124
-121
-122
-120
-120
-119
-117
-117
-113
-112
-120
-122
-125
-125
-121
-123
-120
-117
-119
-114
-115
-111
-111
-107
-103
-101
-103
-99
-96
-96
-91
-91
-91
-90
-85
-80
-75
-71
-65
-59
-65
-66
-68
-77
-72
-75
-72
-72
-72
-73
-74
-73
-75
-71
-71
-71
-66
-68
-67
-67
-66
-64
-62
-61
-59
-62
-61
-56
-56
-50
-51
-50
-48
-50
-49
-46
-45
-44
-47
-40
-41
-35
-30
-32
-31
-31
-32
-30
-33
-30
-31
-31
-31
-26
-30
-30
-29
-28
-30
-27
-30
-32
-30
-30
-27
-22
-23
-21
-25
-22
-25
-25
-25
-21
-24
-23
-22
-20
-22
-16
-16
-17
-12
-8
0
2
8
6
12
11
10
3
2
3
4
1
3
5
7
7
11
7
8
8
7
8
8
3
3
2
2
3
4
8
7
5
1
1
2
-3
-3
-7
-9
-13
-16
-14
-16
-13
-13
-12
-13
-12
-14
-10
-9
-6
-8
-8
-7
-11
-9
-9
-11
-6
-5
-5
-8
-6
-4
-6
-3
-1
6
6
14
11
8
12
10
3
0
-2
-6
-10
-9
-9
-10
-12
-11
-9
-11
-9
-7
-6
-5
1
3
4
6
6
6
3
8
4
6
5
7
8
7
5
8
7
9
6
8
4
2
-1
5
5
10
9
10
13
9
6
9
12
14
15
16
18
21
20
19
21
26
25
29
32
30
31
32
28
23
14
9
6
2
1
0
2
-1
-1
0
2
3
4
3
6
4
7
7
6
5
5
5
4
5
8
3
1
3
2
3
7
1
3
-1
2
-2
-3
2
-4
-3
-3
2
4
3
3
1
4
-1
2
3
3
10
10
11
12
11
9
8
7
10
8
6
7
6
7
9
12
9
7
7
3
5
6
5
2
3
5
5
7
10
11
18
24
19
19
15
16
18
18
17
24
21
24
21
20
18
17
12
12
8
5
-4
-9
-8
-8
-6
-7
-5
-5
-4
2
4
6
6
6
6
3
-3
-5
-2
-10
-8
-5
-5
0
-4
-9
-9
-6
-6
-8
-4
-9
-7
-6
-9
-9
-9
-7
-7
-6
-5
-10
-10
-9
-11
-8
-8
-9
-8
-9
-7
-6
-8
-13
-9
-4
-9
-9
-6
-4
-5
1
-1
5
1
0
-2
2
8
11
12
9
12
5
3
3
4
2
5
6
-1
-3
-3
-2
-3
-3
-4
8
2
4
3
8
7
5
1
2
2
3
1
0
-4
-7
-7
-11
-13
-12
-13
-13
-11
-12
-10
-11
-13
-13
-10
-7
-8
-7
-12
-14
-15
-11
-6
2
3
4
4
7
7
10
13
11
8
8
3
5
2
4
6
6
4
5
0
-3
-5
-4
0
0
3
2
2
-3
-3
-4
-4
-4
-5
-5
-3
-1
-2
-1
-4
-4
-9
-7
-4
0
-5
-5
-7
-7
-6
-7
-10
-11
-13
-13
-13
-8
-13
-13
-8
-11
-9
-7
-4
-11
-7
-7
-7
-5
-6
-7
-9
-10
-11
-8
-7
1
2
-1
-4
-10
-12
-13
-13
-8
-7
-6
-7
-4
-7
-3
-6
-11
-12
-17
-18
-21
-24
-27
-25
-26
-25
-25
-24
-25
-24
-24
-23
-27
-24
-22
-19
-20
-21
-18
-18
-12
-17
-12
-14
-19
-20
-19
-18
-18
-17
-17
-19
-19
-15
-16
-11
-7
-5
-2
2
2
-1
-2
-5
-2
-4
-3
-7
-3
-6
-4
1
2
4
1
-2
-9
-8
-9
-13
-15
-13
-9
-6
-2
-2
-8
-10
-8
-9
-9
-8
-9
-8
-11
-10
-14
-8
-8
-6
-9
-16
-23
-34
-40
-43
-41
-35
-26
-12
-4
4
7
12
14
13
14
10
8
5
5
3
6
-5
-6
-8
-7
-7
-12
-16
-21
-29
-40
-45
-42
-45
-40
-33
-28
-24
-18
-15
-12
-8
-10
-9
-7
-7
0
3
5
8
7
4
6
5
1
3
4
3
1
-1
-4
-2
0
-3
-4
-1
-3
-1
-1
-3
0
-5
0
-2
-3
-5
-4
-7
-5
-6
-7
-9
-10
-11
-9
-9
-6
-7
-7
-3
-3
-5
-7
-9
-8
-10
-10
-13
-12
-16
-12
-13
-15
-16
-14
-9
-11
-7
-3
-2
-3
-9
-8
-8
-8
-7
-6
-1
-2
2
1
4
4
-1
1
-1
5
1
-4
-6
-9
-10
-9
-7
-3
2
1
0
1
6
10
12
11
6
3
-3
-4
-6
-10
-11
-12
-8
-10
-4
-4
-2
3
2
3
1
3
4
0
1
4
8
8
4
4
4
2
-4
-10
-12
-11
-12
-7
-4
-3
-4
-4
-8
-8
-11
-14
-18
-15
-16
-11
-8
-8
-7
-10
-10
-9
-7
-6
-8
-7
-3
0
1
-1
0
6
6
9
11
12
10
12
9
12
13
11
12
14
10
10
10
6
16
121
223
225
168
99
51
31
14
-5
-13
-19
-21
-22
-21
-29
-32
-18
-15
-13
-15
-18
-15
-24
-33
-25
-23
-23
-25
-27
-26
-24
-25
-25
-30
-29
-21
-15
-19
-26
-24
-23
-19
-19
-18
-17
-22
-20
-16
-17
-12
-11
-14
-14
-18
-26
-18
-19
-23
-26
-30
-30
-23
-25
-26
-29
-28
-24
-25
-27
-31
-32
-34
-35
-34
-29
-31
-30
-30
-30
-27
-28
-27
-20
-20
-23
-20
-21
-20
-16
-13
-14
-13
-13
-8
-9
-9
-8
-17
-21
-21
-21
-16
-21
-35
-121
-173
-170
-145
-114
-96
-109
-106
-101
-109
-122
-162
-132
-87
-51
-21
-3
9
13
14
18
19
19
18
19
14
17
13
15
14
14
12
11
15
18
19
21
22
21
24
25
32
34
39
35
38
39
39
35
37
38
33
34
30
29
29
28
29
26
25
25
24
23
24
23
24
25
25
24
22
19
18
17
16
17
22
20
19
24
21
22
15
11
8
3
3
0
1
0
1
4
2
-3
-5
-1
2
5
7
9
9
10
5
4
0
-2
-4
-8
-13
-14
-15
-15
-15
-12
-13
-10
-14
-11
-13
-11
-11
-13
-8
-9
-9
-12
-11
-10
-10
-10
-8
-7
-4
-6
-9
-9
-8
-10
-11
-11
-13
-12
-15
-15
-16
-9
-6
-7
-11
-13
-12
-15
-14
-11
-9
-11
-9
-9
-6
-11
-9
-9
-9
-11
-13
-15
-13
-14
-14
-17
-14
-17
-15
-13
-13
-13
-17
-19
-18
-19
-18
-20
-15
-14
-13
-10
-12
-8
-9
-6
-7
-6
-3
-6
-6
-4
-3
-5
-10
-13
-15
-18
-18
-18
-14
-13
-15
-13
-10
-11
-13
-13
-16
-17
-17
-17
-19
-16
-14
-12
-17
-15
-19
-21
-19
-21
-16
-16
-18
-19
-20
-22
-20
-20
-20
-20
-24
-23
-24
-20
-19
-13
-16
-16
-13
-13
-12
-16
-18
-18
-21
-23
-22
-19
-19
-19
-18
-16
-17
-16
-14
-15
-14
-14
-12
-11
-4
-7
-8
-13
-13
-14
-17
-14
-16
-11
-9
-9
-8
-9
-15
-18
-13
-11
-10
-10
-12
-14
-14
-14
-15
-13
-13
-15
-13
-11
-12
-13
-13
-10
-13
-9
-15
-14
-17
-20
-23
-22
-20
-17
-10
-8
-8
-8
-7
-8
-9
-4
-4
0
5
-2
-1
-3
2
6
8
12
13
14
14
14
14
11
3
-3
-4
-6
-5
-5
-4
-5
2
6
12
5
9
9
7
3
-3
-13
-13
-12
-15
-15
-13
-14
-16
-17
-18
-19
-16
-16
-12
-16
-18
-14
-17
-16
-13
-10
-10
-5
-7
-9
-7
-8
-7
-6
-2
-3
-4
-2
-6
-6
-7
-8
-8
-9
-6
-7
-7
-9
-6
-7
-9
-9
-8
-9
-8
-7
-4
-5
-7
-5
-8
-5
-8
-10
-13
-13
-14
-13
-13
-14
-8
-11
-7
-3
-4
-2
-6
-9
-13
-10
-9
-6
-6
-6
-6
-10
-8
-6
-3
-6
-9
-9
-10
-11
-7
-7
-7
-4
-4
-3
1
-5
-6
-9
-10
-10
-14
-11
-6
-2
4
4
4
4
3
8
9
10
7
4
4
-9
-12
-18
-17
-17
-17
-17
-14
-17
-15
-12
-12
-10
-13
-12
-9
-9
-12
-10
-13
-12
-14
-15
-16
-18
-13
-15
-11
-13
-12
-13
-15
-17
-18
-20
-23
-23
-25
-22
-21
-25
-20
-23
-23
-21
-21
-21
-16
-13
-16
-16
-18
-18
-20
-21
-18
-16
-18
-19
-19
-17
-10
-6
-1
2
4
3
4
3
4
9
7
5
1
-2
-4
-4
-10
-11
-13
-13
-12
-16
-15
-18
-17
-18
-16
-16
-12
-11
-11
-9
-12
-11
-11
-9
-5
-7
-5
-5
-5
-8
-7
-10
-6
-10
-7
-8
-7
-9
-11
-9
-9
-7
-5
-7
-3
-3
-2
3
-2
2
2
-2
-2
-3
0
-4
-5
-5
-4
-4
-3
2
3
6
6
6
5
4
6
5
4
1
-3
-2
-2
-5
-1
1
4
5
7
5
5
6
7
7
10
7
10
7
5
6
5
7
7
8
7
7
6
5
4
7
4
-1
-2
-6
-6
-9
-13
-10
-9
1
0
1
7
8
6
-2
-6
-9
-11
-15
-15
-13
-15
-19
-19
-17
-19
-22
-20
-20
-19
-20
-20
-19
-19
-21
-21
-21
-22
-23
-25
-26
-23
-24
-19
-16
-16
-15
-16
-19
-20
-21
-18
-17
-19
-17
-16
-19
-17
-16
-16
-17
-15
-15
-15
-15
-14
-13
-14
-15
-15
-16
-19
-17
-15
-15
-15
-16
-12
-10
-11
-9
-12
-13
-13
-16
-17
-11
-5
-3
1
5
3
2
3
-1
-2
-3
-4
-3
-3
-5
-10
-9
-8
-7
-9
-4
0
-5
-8
-6
-7
-4
-7
-7
-5
-9
-10
-11
-10
-10
-9
-11
-8
-4
-2
2
3
5
7
5
5
4
0
1
0
-3
-2
-2
2
1
1
-1
-3
1
5
6
4
5
2
0
-2
-3
-1
7
5
8
3
3
-1
1
-1
-5
-3
1
-3
-3
-5
-9
-6
-5
-6
-5
-1
-1
1
-2
2
-5
0
-3
-4
-6
-12
-8
-8
-9
-7
-7
-8
-7
-2
-4
-4
-4
-6
-2
4
5
7
3
4
3
2
1
2
0
-2
-1
-5
-6
-6
-5
-6
-7
-10
-9
-9
-10
-15
-19
-16
-20
-23
-24
-25
-22
-23
-18
-20
-17
-18
-17
-16
-19
-18
-16
-12
-11
-10
-14
-19
-19
-18
-16
-15
-14
-16
-17
-17
-19
-19
-16
-17
-17
-20
-19
-21
-17
-15
-11
-10
-8
-7
-9
-9
-10
-8
-9
-10
-12
-13
-13
-19
-18
-15
-14
-9
-10
-9
-8
-11
-9
-7
-9
-10
-8
-10
-13
-9
-11
-9
-5
-8
-8
-9
-10
-9
-11
-13
-8
-9
-10
-9
-8
-11
-13
-13
-11
-11
-13
-14
-16
-17
-17
-10
-5
-4
-2
4
10
8
10
9
6
-1
-3
3
1
5
6
7
5
8
12
9
7
7
6
1
-3
-2
-2
-2
-4
-5
-3
-6
-4
-6
-13
-14
-16
-15
-15
-13
-17
-14
-13
-14
-14
-17
-14
-15
-8
-8
-10
-13
-9
-11
-11
-10
-11
-15
-15
-19
-16
-14
-11
-9
-9
-9
-9
-9
-8
-9
-13
-17
-16
-17
-19
-19
-16
-19
-19
-22
-22
-17
-14
-12
-11
-15
-12
-11
-15
-11
-8
-8
-11
-9
-9
-8
-9
-6
-4
-2
-5
-7
-5
-3
2
0
-2
-7
-10
-15
-16
-17
-14
-10
-8
-7
-3
-3
-7
-7
-3
-1
4
3
5
5
5
1
-2
-5
-8
-13
-14
-13
-11
-10
-8
-9
-10
-10
-10
-11
-12
-17
-13
-12
-17
-14
-17
-13
-16
-15
-12
-13
-8
-9
-12
-11
-13
-15
-17
-15
-14
-16
-16
-12
-9
-10
-6
-2
0
1
0
2
-4
-2
-2
-3
-1
-6
-7
-5
-7
-7
-6
-2
-7
-6
-9
-9
-9
-6
-2
-1
0
2
4
3
2
1
-4
-3
2
3
3
4
-1
3
-3
-3
-4
-5
-3
1
3
4
6
4
-4
-4
-7
-5
-8
-9
-8
-10
-5
-2
-2
-3
-1
-6
-8
-8
-8
-8
-4
-3
-1
2
4
2
-2
-4
-7
-5
-6
-9
-6
-4
-7
-7
-7
-9
-7
-7
-7
-4
-6
-4
-3
-5
-4
0
-5
-4
1
-5
-4
-2
-9
-8
-8
-9
-4
-7
-9
-9
-7
-5
-7
-9
-11
-10
-6
-7
-3
-7
-8
-12
-11
-10
-7
-9
-7
-6
-11
-14
-10
-6
-2
0
-2
-9
-9
-13
-14
-16
-20
-22
-22
-20
-20
-16
-19
-18
-16
-15
-13
-15
-17
-18
-23
-22
-21
-20
-16
-15
-15
-18
-11
-13
-12
-17
-16
-18
-19
-16
-12
-9
-10
-15
-13
-10
-12
-11
-4
-6
-10
-15
-11
-10
-14
-15
-16
-15
-14
-14
-12
-10
-6
-6
-4
8
17
15
6
1
2
9
29
28
28
42
31
16
13
16
5
17
47
53
42
31
5
-21
-40
-42
-29
-25
-35
-43
-59
-64
-46
-34
-19
-10
-7
-5
-6
-3
0
3
28
36
10
-38
-60
-64
-52
-36
-13
12
24
37
66
96
100
78
42
17
9
-17
-28
-11
-6
-5
4
-5
-13
-26
-35
-34
-35
-36
-40
-41
-44
-42
-41
-47
-45
-40
-29
-28
-27
-34
-45
-51
-41
-28
-20
-15
-9
-7
-17
-10
9
28
24
23
22
18
14
9
3
-11
-21
-27
-30
-28
-30
-33
-34
-26
-19
-20
-29
-23
-15
-7
-12
-19
-26
-26
-27
-27
-32
-27
-16
-11
-11
-9
0
-5
-9
-14
-17
-14
-5
3
7
7
3
-6
-11
-14
-18
-13
-13
-13
-14
-17
-17
-12
-13
-16
-41
-40
-25
-3
9
8
3
0
-3
-21
-22
-9
3
3
1
-3
4
7
8
7
1
4
1
3
8
14
18
15
11
9
10
12
8
9
7
6
2
2
0
-4
-8
-11
-11
-14
-16
-15
-17
-15
-13
-15
-15
-11
-9
-4
-6
-7
-12
-11
-4
-3
-5
-2
-2
-3
-3
0
-2
0
0
-1
-11
-12
-15
-17
-9
-9
-14
-6
-5
-12
-7
-3
2
1
5
5
4
8
7
3
-5
-11
-18
-15
-20
-23
-18
-15
-13
-10
-7
-8
-10
-3
1
5
-1
6
7
5
-1
1
-3
-2
-2
-1
0
3
7
5
7
5
6
5
1
-10
-22
-20
-17
-14
-18
-19
-17
-16
-16
-15
-25
-25
-15
-7
-27
-154
-214
-117
124
150
-15
-129
-72
148
185
23
-121
-66
140
162
-11
-139
-81
137
161
-8
-128
-81
131
170
3
-116
-65
147
183
15
-118
-73
135
161
-10
-140
-108
96
148
-13
-133
-92
113
156
-10
-138
-92
116
147
-51
-157
-121
100
136
-37
-168
-125
90
136
-33
-161
-113
110
152
-17
-153
-103
128
167
-11
-155
-110
120
154
-23
-170
-132
99
148
-22
-163
-125
109
153
-18
-167
-127
105
148
-24
-164
-121
116
157
-17
-162
-120
117
154
-26
-177
-129
111
154
-21
-179
-129
109
149
-22
-169
-126
112
153
-21
-169
-127
103
150
-23
-174
-132
107
152
-20
-172
-134
101
149
-20
-169
-125
109
157
-15
-173
-134
99
145
-26
-178
-143
92
141
-29
-176
-138
101
153
-16
-169
-137
99
155
-13
-170
-138
100
152
-15
-166
-133
125
154
-20
-169
-137
100
152
-23
-173
-137
97
151
-21
-172
-141
97
155
-16
-168
-139
100
151
-19
-170
-139
96
149
-21
-171
-141
99
162
4
-147
-118
120
174
6
-150
-124
110
164
-6
-160
-132
105
157
-21
-174
-149
93
156
-13
-163
-138
100
159
-35
-164
-146
92
152
-12
-166
-140
102
164
-5
-164
-140
96
149
-13
-170
-151
90
156
-12
-170
-151
86
147
-8
-166
-149
89
155
-8
-166
-147
89
153
-7
-165
-142
94
160
-1
-159
-144
94
161
0
-153
-133
106
174
10
-146
-137
97
164
3
-165
-154
61
150
0
-157
-142
92
159
3
-156
-145
93
160
-2
-164
-148
89
163
4
-159
-140
96
161
4
-159
-147
92
163
7
-156
-144
89
164
6
-154
-145
92
167
10
-155
-140
89
165
16
-145
-137
95
172
17
-151
-143
92
172
18
-153
-146
88
156
10
-149
-145
88
170
14
-150
-146
92
169
20
-151
-147
87
169
16
-150
-148
83
167
20
-143
-142
93
174
16
-155
-156
73
159
13
-149
-141
94
180
33
-140
-136
94
174
22
-147
-146
86
172
18
-154
-150
81
184
67
-128
-151
71
153
8
-178
-164
68
157
18
-157
-159
78
162
25
-148
-150
81
174
30
-145
-151
80
169
30
-143
-148
78
171
30
-141
-147
80
167
28
-150
-158
69
168
30
-144
-153
74
167
26
-151
-162
67
163
32
-144
-153
80
177
39
-139
-148
77
177
45
-131
-142
106
174
41
-136
-154
67
166
27
-148
-164
64
162
32
-146
-160
67
165
38
-139
-152
75
174
38
-134
-149
78
181
47
-129
-144
82
183
52
-129
-148
72
171
39
-134
-147
77
177
47
-134
-151
73
176
42
-139
-156
67
172
39
-144
-164
61
160
1
-153
-174
51
156
28
-150
-171
48
156
26
-150
-169
55
164
46
-133
-157
64
170
43
-136
-163
58
168
41
-141
-160
63
172
48
-135
-162
57
164
33
-148
-177
43
152
33
-149
-175
50
155
35
-147
-172
47
160
39
-146
-168
53
170
54
-131
-143
64
177
56
-126
-155
62
176
52
-133
-164
48
164
45
-137
-169
50
158
38
-146
-178
39
158
37
-149
-179
36
148
31
-151
-178
42
157
40
-144
-176
37
158
39
-145
-177
38
160
46
-139
-170
42
165
46
-141
-177
42
163
47
-134
-164
74
166
51
-133
-165
50
168
57
-128
-166
44
165
49
-140
-178
38
158
42
-142
-183
32
156
41
-140
-182
33
151
43
-140
-176
55
173
48
-143
-173
55
174
54
-138
-175
50
169
52
-140
-171
47
172
45
-145
-180
39
163
45
-143
-172
54
185
43
-121
-157
64
190
69
-125
-165
60
183
72
-120
-157
61
185
62
-127
-162
60
183
68
-127
-164
49
174
58
-137
-179
42
170
53
-140
-178
36
164
51
-135
-177
41
176
60
-132
-168
41
174
60
-134
-178
35
167
53
-137
-184
29
161
51
-138
-173
23
162
56
-132
-178
34
171
61
-131
-174
32
166
55
-134
-182
26
165
63
-128
-168
35
171
70
-125
-169
34
173
72
-114
-165
37
174
64
-122
-173
21
162
61
-127
-180
24
168
65
-121
-173
32
176
75
-116
-170
26
167
63
-124
-178
20
167
65
-125
-176
20
171
74
-120
-175
21
169
75
-117
-176
23
170
71
-120
-181
6
162
81
-109
-168
21
170
75
-113
-168
21
171
79
-115
-175
16
161
68
-121
-178
14
167
73
-120
-180
7
167
72
-119
-180
11
163
72
-125
-187
-5
151
60
-148
-194
6
160
67
-123
-181
7
160
71
-20
30
45
26
-1
-21
-29
-34
-39
-42
-40
-44
-46
-42
-43
-35
-37
-34
-32
-31
-29
-28
-26
-25
-24
-23
-24
-20
-20
-23
-18
-17
-21
-22
-24
-27
-25
-26
-29
-29
-31
-28
-27
-23
-22
-22
-26
-25
-17
-15
-9
-6
-7
-6
-9
-5
-8
-10
-6
-8
-7
-4
-6
-4
-5
-2
-3
0
3
6
2
1
-2
-4
-2
1
-4
-4
-3
-4
0
-4
-5
0
3
-1
-5
0
-3
-3
2
3
-1
-100
-400
-626
-722
-762
-787
-696
-510
-329
-181
-77
-2
36
68
78
82
77
68
51
40
15
-15
-25
-20
7
35
54
55
61
46
36
33
39
65
112
201
331
474
616
743
910
1034
1054
859
612
394
233
118
40
-7
-30
-45
-61
-152
-439
-642
-646
-508
-344
-220
-150
-111
-80
-73
-71
-69
-64
-47
-7
10
21
105
430
630
689
621
473
313
141
101
117
230
449
536
400
273
249
331
487
619
704
758
788
797
785
769
763
778
819
864
910
908
891
877
752
444
123
-111
-273
-385
-436
-474
-503
-546
-580
-586
-561
-512
-437
-347
-317
-356
-401
-402
-333
-281
-303
-312
-272
-209
-118
-116
-128
25
84
-67
-82
-31
-59
-109
-84
-77
-116
-183
-250
-308
-332
-198
-109
-107
-134
-196
-239
-239
-225
-188
-129
-24
-5
12
-21
-46
-31
3
7
-12
6
185
297
280
257
247
234
184
88
19
-30
-38
-28
-43
105
223
168
66
-14
-144
-135
-45
-5
-16
36
-15
-165
-214
-125
107
172
71
-39
-146
-170
-145
-100
-78
49
150
177
73
-50
-34
-49
-64
-31
25
164
187
159
58
-50
-99
-56
-16
29
102
119
34
-43
36
99
79
58
113
197
230
297
354
308
222
118
-30
-119
-148
-132
-84
-4
35
9
-30
-20
-7
-7
-2
-4
-17
-20
-9
24
56
87
122
147
175
200
224
257
263
251
272
289
288
277
280
292
325
348
345
326
305
279
258
239
227
222
213
217
231
239
239
230
220
216
214
207
200
194
187
185
176
168
161
157
152
145
139
136
132
129
126
118
115
109
107
102
97
95
91
88
84
79
76
66
59
21
-66
-96
-81
-52
-29
-13
4
11
15
21
24
21
20
14
7
8
6
7
7
12
8
2
-10
-17
-22
-26
-31
-33
-30
-27
-19
2
1
-4
-8
21
45
43
20
-13
-34
-55
-67
-79
-80
-89
-99
-104
-104
-105
-109
-114
-116
-120
-121
-126
-124
-129
-126
-126
-127
-127
-131
-130
-129
-133
-131
-133
-132
-132
-138
-138
-138
-139
-137
-141
-144
-143
-140
-143
-144
-144
-146
-147
-146
-146
-149
-147
-151
-150
-150
-149
-151
-147
-147
-149
-154
-159
-175
-205
-246
-280
-285
-269
-243
-217
-198
-176
-159
-147
-137
-132
-125
-122
-118
-117
-177
-446
-443
81
632
911
884
837
989
1068
1090
743
534
552
383
110
-273
-283
57
193
168
-25
-32
-80
-234
-398
-580
-402
-381
-531
-682
-751
-599
-381
-256
-213
-286
-197
-82
-73
-120
-227
-170
-122
-158
-230
-324
-228
-178
-239
-331
-434
-328
-237
-252
-319
-422
-288
-265
-413
-592
-669
-517
-396
-365
-387
-440
-301
-191
-204
-266
-355
-245
-173
-261
-392
-491
-351
-223
-228
-288
-378
-230
-106
-96
-138
-196
-126
-61
-50
-79
-147
-77
7
18
-15
-142
-61
71
116
111
34
64
55
-20
-113
-190
-130
-55
-44
-76
-158
-74
-28
-93
-187
-280
-189
-63
5
12
-173
-123
52
-160
-494
-672
-581
-157
-131
-377
-528
-393
-205
-93
-44
-69
6
-9
-152
-317
-426
-324
-185
-111
-89
-143
-32
2
-83
-203
-295
-180
-178
-298
-459
-587
-379
-308
-483
-669
-741
-571
-400
-347
-368
-398
-232
-129
-171
-266
-360
-198
-87
-139
-248
-316
-168
-63
-50
-84
-141
-50
21
-4
-72
-146
-49
59
80
49
-17
57
135
130
76
-43
53
169
183
168
68
115
191
173
107
-48
34
155
141
71
-24
50
120
155
150
-56
19
203
32
-278
-485
-368
-190
-95
-62
-93
5
97
88
36
-63
2
116
108
45
-44
24
119
150
146
90
134
147
100
31
-53
15
40
-37
-157
-262
-140
-60
-93
-245
-408
-296
-39
196
173
26
-20
102
268
213
53
7
147
308
240
75
19
156
313
247
80
29
171
321
263
102
49
195
344
280
114
62
205
349
282
111
59
199
349
284
117
65
204
354
292
117
66
208
358
293
121
118
261
317
304
267
238
211
194
177
170
167
166
163
163
163
160
158
158
153
147
148
129
127
153
163
162
159
156
155
151
152
148
149
143
140
138
109
96
51
-40
-40
117
300
262
97
37
171
325
267
88
24
166
314
241
63
-5
145
292
236
73
-2
161
264
195
19
-45
103
251
195
37
87
171
181
147
117
71
80
206
176
6
-62
66
227
174
-1
-73
62
214
158
-22
-89
41
174
191
155
111
78
69
-3
-142
-167
-3
174
134
-32
-101
32
191
139
-40
-109
15
180
128
-47
-120
9
171
100
-60
-125
11
168
117
-65
-140
-7
153
101
-75
-146
-13
149
102
-76
-145
-12
148
103
-72
-145
-16
149
98
-79
-146
-7
154
104
-74
-152
-25
143
100
-81
-153
-25
140
94
-82
-152
-23
142
95
-86
-159
-25
139
99
-78
-150
-17
141
92
-83
-152
-25
141
100
-76
-150
-23
138
95
-84
-157
-30
131
86
-97
-176
-52
114
70
-108
-183
-49
115
76
-96
-171
-43
119
80
-98
-172
-47
119
73
-102
-178
-48
122
90
-89
-167
-39
128
87
-97
-179
-54
110
70
-107
-187
-60
106
70
-109
-185
-69
109
64
-106
-179
-56
115
78
-101
-181
-58
109
77
-99
-180
-56
111
79
-101
-180
-56
119
87
-89
-166
-45
124
89
-88
-175
-55
117
82
-99
-182
-60
117
84
-91
-170
-47
122
91
-86
-168
-46
122
86
-94
-177
-57
111
79
-93
-174
-52
116
75
-124
-193
-75
96
67
-110
-193
-68
99
71
-106
-192
-76
97
70
-105
-188
-73
105
82
-93
-181
-66
110
83
-92
-181
-63
110
83
-96
-185
-64
108
85
-85
-167
-50
125
99
-77
-167
-51
124
94
-84
-175
-58
117
93
-80
-168
-53
117
92
-90
-179
-26
109
91
-88
-172
-60
111
92
-84
-169
-61
118
104
-73
-167
-74
69
19
-117
-162
-124
-34
-30
-89
-94
-37
14
-3
-66
-72
-76
-156
-281
-407
-348
-270
-371
-541
-688
-581
-390
-456
-633
-739
-624
-405
-397
-493
-592
-465
-301
-263
-299
-416
-281
-75
-36
-98
-207
-133
9
39
7
-93
-44
27
-13
-99
-271
-191
-66
-246
-514
-688
-713
-220
459
828
990
1061
1097
1109
1118
1118
1122
1123
1126
1122
1126
1126
1123
1125
1125
1125
1124
1124
1126
1123
1125
1125
1125
1123
1126
1124
1128
1128
1125
1123
1127
1127
1125
1125
1125
1125
1004
687
340
38
-227
-348
-403
-446
-501
-647
-739
-467
72
563
872
1011
1072
1100
1110
1120
1122
1123
1125
1126
1126
1123
1125
1126
1127
1126
1125
1127
1126
1125
1125
1125
1125
1125
1125
1124
1125
1124
1127
1125
1126
1126
1125
1126
1125
1125
1123
1126
1125
1126
1124
1126
1123
1126
1126
1125
1118
1105
1096
1086
1077
1063
1056
1048
1035
1028
1020
1011
1003
993
986
978
966
959
951
946
936
927
918
912
906
897
887
882
874
865
857
851
843
835
828
824
815
810
799
795
786
782
775
764
760
752
747
740
732
728
721
716
708
703
694
689
685
680
672
666
660
654
649
645
637
631
628
622
615
612
604
601
595
591
584
579
574
567
564
561
553
552
546
538
535
531
526
520
517
502
491
489
486
487
433
400
402
420
412
294
206
222
277
263
106
-12
4
100
82
-102
-244
-215
-86
-113
-308
-453
-427
-292
-332
-530
-675
-645
-505
-534
-688
-760
-768
-664
-707
-771
-797
-806
-793
-806
-811
-813
-817
-816
-816
-814
-817
-813
-818
-817
-817
-817
-814
-814
-813
-814
-818
-819
-816
-814
-819
-817
-816
-817
-818
-818
-815
-818
-814
-814
-817
-815
-817
-818
-817
-819
-817
-816
-817
-819
-819
-817
-820
-820
-816
-816
-815
-815
-815
-817
-817
-816
-817
-819
-817
-819
-818
-818
-814
-816
-816
-817
-820
-816
-817
-815
-816
-821
-815
-818
-816
-819
-817
-821
-816
-819
-803
-677
-563
-499
-505
-524
-448
-403
-399
-451
-455
-419
-430
-473
-546
-544
-477
-420
-396
-462
-503
-385
-349
-384
-468
-467
-398
-359
-355
-391
-399
-366
-337
-331
-368
-388
-349
-330
-342
-423
-416
-335
-292
-296
-368
-399
-336
-291
-312
-395
-400
-314
-272
-269
-306
-326
-292
-268
-269
-313
-319
-281
-257
-264
-304
-347
-315
-252
-224
-254
-255
-212
-195
-198
-217
-228
-203
-194
-212
-276
-282
-247
-210
-192
-214
-225
-210
-196
-201
-277
-319
-200
-143
-153
-253
-239
-144
-113
-119
-145
-167
-152
-148
-206
-282
-275
-205
-169
-166
-209
-226
-182
-153
-143
-216
-284
-236
-133
-101
-120
-107
-77
-76
-96
-166
-210
-181
-117
-119
-170
-159
-108
-75
-78
-108
-139
-112
-88
-103
-189
-210
-122
-66
-70
-155
-201
-112
-29
-32
-121
-179
-73
23
20
-60
15
204
233
158
11
-13
31
40
-9
-166
-171
-19
52
45
6
-39
-47
-20
-29
-80
-92
-38
-6
-19
-76
-78
-4
35
14
-67
-60
-2
33
-5
-156
-194
-104
-31
-12
-29
-36
-21
-11
-18
-38
-72
-58
-25
-38
-167
-219
-38
57
39
-40
-74
-26
2
-9
-31
-53
-35
-33
-33
-49
-39
51
243
388
256
143
128
116
77
10
-43
-48
-25
-25
-40
-40
-28
-17
-28
-68
-124
-34
9
41
58
49
43
74
113
116
61
3
-8
22
45
34
15
13
20
-29
-69
-35
-18
-24
-50
-65
-53
-43
-44
-68
-68
-54
-40
-46
-74
-81
-45
-32
-34
-57
-68
-45
-26
-43
-44
-19
-7
-1
-13
-37
-98
-187
-221
-235
-219
-162
-106
-68
-43
-43
-31
-19
-9
7
9
-17
-32
-34
-47
-77
-82
-59
-26
-4
-5
-34
-54
-70
-78
-96
-124
-149
-139
-127
-145
-128
-89
-52
-27
-46
-115
-120
-92
-55
-38
-26
-6
4
4
-51
-52
7
30
31
13
-12
-10
15
6
-28
-34
2
17
8
-39
-68
-19
22
14
-28
-14
30
87
146
144
21
-94
-89
-109
-193
-249
-340
-317
-165
-33
44
107
163
167
40
-73
-71
2
81
116
1
-266
-351
-265
-169
-99
-53
-22
-12
-8
-9
1
4
7
7
-4
-5
-4
-13
-38
-100
-165
-186
-174
-164
-161
-150
-124
-108
-111
-132
-173
-184
-163
-143
-138
-136
-128
-118
-121
-167
-148
-90
-21
43
76
80
77
77
64
34
12
19
35
45
40
30
28
26
2
-55
-114
-130
-105
-143
-397
-304
253
727
939
1035
1059
659
56
-428
-652
-747
-788
-806
-813
-817
-819
-818
-821
-821
-822
-820
-820
-822
-820
-823
-820
-820
-822
-822
-823
-821
-825
-825
-822
-824
-821
-825
-825
-823
-824
-820
-822
-820
-825
-823
-820
-825
-825
-824
-824
-822
-822
-823
-785
-715
-650
-600
-553
-516
-486
-461
-434
-413
-392
-374
-353
-333
-312
-291
-278
-262
-249
-241
-232
-222
-207
-190
-171
-157
-138
-126
-117
-109
-97
-85
-72
-59
-48
-37
-24
-14
-1
9
24
32
38
43
47
54
64
74
83
92
101
109
117
129
136
147
146
154
155
156
166
171
182
187
194
196
200
204
211
216
216
213
219
227
229
228
234
249
272
305
375
525
545
380
219
108
15
34
220
359
374
339
326
311
302
282
280
279
277
281
282
282
277
278
278
278
280
278
283
275
272
273
270
269
265
263
261
260
263
265
263
267
264
264
261
263
269
276
279
283
288
291
293
290
289
288
281
279
272
267
270
271
267
269
269
271
274
278
276
274
274
280
282
283
279
277
272
266
267
267
268
267
264
258
254
252
252
251
250
256
251
252
252
251
251
249
246
238
236
230
228
225
224
218
219
218
220
217
216
213
216
215
209
211
210
209
206
205
207
208
205
203
202
200
203
205
203
200
201
201
200
193
192
187
183
178
178
178
179
174
172
171
171
171
168
168
164
164
160
159
156
153
149
143
142
141
139
139
136
133
131
134
135
132
128
126
127
126
124
122
118
118
115
115
111
108
105
103
102
102
100
98
97
95
93
94
96
96
98
92
93
92
92
87
83
84
82
83
79
75
78
78
79
79
78
78
72
72
71
73
69
66
63
60
57
58
62
60
88
94
72
56
41
33
34
37
43
49
55
57
61
58
55
50
46
-20
-114
-128
-134
-160
-129
-73
-27
10
32
57
72
81
75
79
83
88
87
94
92
97
94
96
84
75
49
10
-6
4
23
29
25
24
24
21
20
11
8
13
18
20
22
23
32
32
34
26
14
16
15
15
14
14
8
0
-4
-10
-16
-51
-110
-158
-191
-189
-143
-81
-36
0
13
25
31
29
7
-39
-73
-73
-50
-13
23
52
69
77
79
75
48
-20
-102
-143
-160
-166
-158
-102
-32
26
61
85
78
59
58
68
86
100
113
117
124
123
123
115
113
108
100
80
47
19
6
11
30
51
67
76
78
81
77
80
80
77
81
78
76
70
64
44
12
-32
-90
-135
-181
-247
-246
-195
-132
-79
-41
-24
-13
-9
-9
-9
-7
-8
-10
-15
-10
-4
5
8
7
2
4
-3
-10
-28
-37
-41
-26
18
12
-4
-23
-32
119
376
676
791
621
396
251
154
44
3
-14
-29
-6
41
39
14
1
9
-34
-87
-80
-54
-21
-17
-26
-35
-37
-43
-52
-66
-80
-79
-80
-71
-79
-181
-279
-268
-203
-127
-80
-58
-48
-35
-26
-13
4
13
14
2
-9
-17
-18
-11
-12
-7
-25
-42
-54
-56
-54
-178
-407
-452
-354
-218
-95
-45
-126
-309
-372
-263
-129
-15
68
122
156
181
191
200
204
203
199
192
189
184
184
174
169
158
148
135
123
117
108
95
89
80
72
73
59
44
-10
-133
-335
-499
-463
-328
-224
-124
-53
-3
30
46
58
66
73
73
77
67
68
66
60
52
48
47
48
41
46
43
36
27
39
42
47
50
52
120
248
432
613
759
880
975
1045
1078
1085
1050
988
927
869
806
738
673
623
588
572
567
563
565
563
564
549
531
516
500
482
463
450
445
436
428
441
484
523
562
604
644
686
732
777
814
832
832
825
805
779
745
700
648
594
543
499
457
419
387
368
346
329
315
303
288
276
257
235
217
191
169
140
112
75
48
11
-17
-44
-65
-91
-113
-125
-135
-146
-163
-171
-182
-197
-201
-195
-182
-153
-115
-64
6
98
212
346
497
663
842
956
769
456
175
-32
-165
-239
-284
-296
-303
-286
-271
-264
-278
-303
-332
-359
-377
-377
-369
-361
-349
-328
-309
-289
-263
-239
-218
-193
-166
-144
-106
8
280
444
403
297
196
122
60
23
0
-16
-32
-44
-56
-62
-72
-79
-87
-89
-95
-97
-90
-83
-85
-103
-114
-107
-96
-88
-86
-79
-68
-65
-93
-251
-404
-385
-300
-217
-154
-112
-90
-73
-64
-54
-42
-30
-16
-4
3
15
18
21
17
16
18
13
17
12
13
11
13
12
10
3
5
5
17
45
96
170
252
343
448
565
689
802
905
1002
1058
1084
1095
1101
1104
1105
1108
1108
1106
1108
1105
1103
1093
1031
968
909
856
799
761
743
726
694
651
601
534
427
297
134
-47
-227
-405
-587
-719
-783
-809
-820
-826
-824
-830
-830
-806
-568
-139
228
584
614
437
230
65
-52
-135
-182
-215
-233
-241
-251
-254
-256
-253
-253
-249
-240
-228
-208
-191
-182
-163
-145
-129
-122
-113
-97
-87
-85
-78
-75
-71
-87
-117
-154
-205
-253
-312
-375
-440
-511
-580
-650
-714
-778
-809
-821
-831
-829
-831
-831
-834
-832
-833
-831
-832
-832
-833
-833
-831
-801
-743
-683
-623
-564
-514
-471
-432
-402
-376
-363
-350
-345
-336
-327
-327
-318
-317
-304
-284
-264
-242
-217
-189
-155
-121
-84
-43
0
36
73
111
143
168
192
216
229
244
255
263
267
274
280
280
281
283
281
280
280
275
272
264
257
253
251
248
243
243
242
248
253
258
265
273
300
340
391
450
512
581
642
679
695
702
701
698
688
681
671
662
651
644
636
624
611
596
582
569
551
538
524
507
496
484
475
465
464
449
429
398
360
318
267
211
159
128
135
167
196
212
212
210
205
202
201
201
204
200
185
161
131
104
77
52
29
10
0
-20
-33
-47
-61
-71
-92
-115
-142
-167
-192
-213
-237
-248
-265
-277
-289
-294
-302
-306
-309
-313
-311
-309
-309
-305
-296
-297
-290
-289
-286
-279
-278
-265
-261
-252
-239
-232
-220
-210
-209
-205
-205
-207
-209
-212
-221
-231
-243
-247
-258
-269
-284
-289
-300
-305
-310
-316
-331
-336
-341
-345
-347
-346
-346
-348
-345
-343
-344
-344
-344
-349
-349
-348
-349
-351
-351
-354
-352
-353
-347
-349
-342
-342
-340
-338
-337
-340
-350
-352
-353
-355
-361
-361
-357
-356
-355
-349
-349
-347
-352
-350
-346
-344
-343
-337
-336
-331
-328
-325
-321
-310
-301
-299
-311
-323
-340
-363
-391
-418
-443
-430
-368
-296
-243
-210
-185
-167
-149
-129
-115
-96
-74
-51
-33
-14
1
15
31
44
60
76
93
117
139
156
177
190
206
216
231
240
251
259
264
276
284
297
306
311
311
300
291
278
270
254
245
236
228
219
208
203
188
181
168
164
154
147
138
131
123
115
104
93
85
73
64
52
33
15
-5
-26
-49
-72
-92
-112
-122
-141
-149
-164
-172
-176
-181
-183
-185
-194
-195
-193
-190
-189
-189
-188
-180
-178
-173
-164
-157
-149
-143
-133
-117
-107
-95
-84
-74
-58
-49
-39
-31
-17
-7
11
29
50
74
100
125
147
172
196
216
237
253
267
288
306
320
332
351
364
380
400
415
423
418
409
383
352
321
282
252
255
306
362
403
429
448
447
449
449
448
444
439
431
432
424
422
410
408
403
396
392
384
377
373
368
364
358
353
346
333
328
323
313
310
301
291
289
281
276
270
263
260
252
244
235
234
228
222
220
214
209
204
198
198
190
188
180
175
167
164
161
157
155
156
153
149
141
131
109
87
65
41
20
4
-12
-19
-27
-32
-36
-41
-42
-45
-49
-55
-59
-70
-76
-84
-93
-99
-101
-102
-103
-99
-103
-104
-104
-105
-103
-102
-105
-105
-102
-100
-103
-105
-108
-109
-109
-109
-106
-102
-101
-101
-102
-99
-94
-97
-95
-101
-96
-93
-89
-88
-82
-72
-64
-57
-42
-30
-27
-40
-66
-101
-137
-181
-229
-260
-252
-196
-132
-85
-59
-44
-35
-42
-41
-50
-53
-61
-66
-73
-74
-85
-90
-98
-107
-112
-127
-132
-144
-153
-160
-168
-174
-177
-188
-186
-197
-195
-200
-200
-203
-203
-202
-200
-199
-196
-198
-191
-190
-185
-180
-171
-165
-156
-149
-143
-134
-125
-117
-104
-96
-82
-77
-69
-63
-52
-45
-31
-23
-10
1
12
20
31
38
52
57
67
74
81
88
95
99
101
104
104
103
103
103
100
104
100
100
99
104
98
107
105
112
108
112
112
108
111
111
107
110
109
103
96
95
93
82
78
74
66
66
60
56
50
51
49
51
48
49
49
48
48
49
48
55
56
64
66
58
41
16
-22
-67
-115
-165
-206
-196
-133
-64
-5
27
49
61
69
69
69
71
69
73
70
69
70
64
63
62
57
56
52
46
45
40
35
32
25
22
18
14
10
6
6
1
-2
-7
-11
-13
-17
-19
-21
-22
-27
-22
-27
-25
-25
-24
-26
-23
-21
-22
-17
-18
-9
-9
-10
-11
-13
-19
-17
-27
-25
-26
-32
-30
-33
-34
-41
-41
-41
-43
-48
-51
-50
-49
-49
-49
-52
-52
-50
-52
-55
-54
-61
-59
-61
-63
-61
-60
-66
-61
-63
-61
-64
-60
-59
-57
-55
-56
-58
-56
-58
-58
-58
-57
-54
-54
-48
-48
-51
-46
-49
-49
-46
-44
-44
-46
-49
-45
-44
-40
-29
-25
-21
-25
-46
-69
-104
-149
-191
-237
-269
-242
-182
-114
-73
-44
-29
-21
-12
-14
-14
-10
-12
-10
-9
-7
-8
-6
-8
-12
-7
-11
-10
-8
-11
-11
-15
-14
-13
-17
-18
-17
-21
-19
-20
-24
-24
-27
-29
-27
-23
-31
-30
-31
-28
-28
-29
-27
-27
-26
-23
-22
-21
-14
-17
-17
-14
-11
-12
-10
-14
-20
-23
-24
-31
-26
-33
-32
-33
-37
-36
-36
-38
-37
-38
-35
-30
-33
-33
-30
-27
-27
-30
-28
-21
-26
-23
-24
-19
-17
-11
-9
-6
0
2
7
12
12
19
16
22
20
20
13
16
9
12
10
9
11
12
14
15
20
15
22
19
18
21
20
19
20
22
23
25
36
43
39
27
7
-20
-60
-102
-146
-187
-199
-152
-89
-32
6
25
33
41
42
47
46
45
43
43
35
37
38
32
31
31
28
28
27
21
22
19
19
14
14
13
9
9
7
7
6
-1
3
3
1
-1
0
-2
3
4
4
3
7
8
8
14
14
15
18
20
22
25
22
26
23
24
20
20
16
12
14
8
9
7
2
3
-2
-2
-5
-5
-1
0
-5
3
-2
-3
0
-4
-3
-4
-5
-4
-8
-2
0
-3
-3
0
2
5
2
3
5
6
8
7
6
5
4
-3
-3
-5
-5
-5
-4
-5
-1
3
3
6
7
7
6
6
7
6
7
10
11
16
21
30
35
30
18
-7
-38
-77
-114
-157
-193
-195
-141
-77
-29
-1
18
27
32
35
36
38
36
39
40
41
40
42
39
39
39
40
37
35
36
37
36
35
36
35
33
32
33
30
30
30
27
25
23
19
19
22
21
17
22
21
20
22
20
23
26
25
24
27
26
28
27
29
28
26
25
23
19
16
11
6
8
3
-2
-3
-5
-5
-6
-5
-6
-6
-5
-8
-8
-5
-6
-6
-5
-2
-1
1
1
2
-1
1
8
9
7
10
12
7
10
12
12
10
12
9
5
4
-2
-4
-8
-8
-8
-12
-6
-7
-3
0
-3
4
1
-2
-2
1
-5
-5
0
3
5
9
22
24
15
4
-19
-50
-84
-120
-167
-198
-196
-139
-83
-37
-11
8
14
22
21
19
20
21
20
20
17
24
16
19
19
23
23
27
27
25
29
30
31
32
31
33
36
36
38
38
39
41
43
39
43
43
45
47
48
48
51
52
53
57
57
57
60
66
68
68
73
81
78
78
76
71
66
64
53
48
39
33
27
22
16
14
11
7
1
5
1
-4
-8
-11
-17
-21
-28
-25
-33
-33
-35
-32
-32
-28
-29
-23
-24
-21
-20
-25
-23
-24
-26
-24
-26
-34
-41
-48
-53
-51
-43
-41
-32
-35
-26
-21
-12
-9
2
1
11
10
12
14
18
20
22
22
25
28
32
41
49
59
56
42
21
-5
-39
-75
-127
-171
-181
-139
-81
-32
6
25
41
51
55
52
53
51
48
43
37
32
29
23
17
13
8
2
-6
-13
-15
-18
-26
-31
-36
-41
-53
-54
-62
-64
-75
-78
-88
-93
-101
-113
-119
-126
-140
-144
-158
-162
-174
-183
-190
-197
-205
-213
-220
-225
-227
-231
-236
-245
-246
-261
-267
-273
-283
-289
-301
-306
-304
-313
-316
-318
-320
-319
-321
-316
-319
-315
-315
-312
-309
-304
-303
-293
-285
-279
-274
-261
-254
-240
-236
-223
-211
-201
-187
-179
-164
-152
-138
-126
-113
-102
-89
-81
-67
-59
-44
-30
-18
-7
6
10
19
30
41
51
66
79
91
103
117
127
137
149
158
167
169
174
176
178
185
193
207
220
224
217
199
174
145
110
50
18
6
49
110
157
189
201
209
211
213
208
207
201
198
192
188
184
178
169
163
155
143
140
132
129
118
114
110
108
101
100
96
93
92
88
88
86
87
83
83
84
84
81
86
84
87
84
89
92
89
90
96
95
98
100
100
99
98
97
92
89
83
79
74
65
58
43
32
19
14
4
-2
-14
-21
-33
-28
-36
-41
-45
-44
-52
-50
-56
-55
-59
-65
-68
-72
-72
-80
-85
-92
-90
-95
-99
-98
-100
-103
-104
-101
-103
-102
-105
-100
-101
-100
-98
-94
-93
-87
-83
-81
-72
-66
-57
-57
-51
-48
-40
-40
-33
-29
-20
-14
-6
0
9
9
16
21
24
37
46
58
74
89
105
118
135
150
147
141
119
92
52
12
-42
-79
-81
-27
38
90
119
137
150
156
160
166
164
168
169
166
168
167
166
162
159
156
156
153
150
153
148
146
139
135
138
129
126
124
118
116
111
105
98
95
88
84
75
66
63
53
52
49
52
47
46
46
44
42
47
48
53
56
56
54
58
53
48
39
32
30
22
17
10
9
5
4
-4
-8
-9
-18
-21
-32
-37
-42
-50
-55
-60
-63
-68
-72
-76
-74
-78
-79
-79
-79
-77
-81
-81
-79
-76
-77
-79
-74
-75
-74
-77
-82
-86
-81
-84
-84
-92
-88
-88
-92
-92
-92
-95
-94
-98
-99
-97
-102
-104
-103
-102
-97
-98
-93
-85
-84
-77
-74
-71
-68
-64
-66
-65
-62
-63
-65
-62
-60
-60
-54
-52
-53
-65
-85
-113
-149
-187
-232
-272
-270
-221
-155
-103
-72
-56
-44
-37
-30
-29
-29
-23
-20
-16
-18
-20
-19
-17
-17
-16
-14
-16
-19
-19
-21
-20
-20
-24
-24
-29
-25
-23
-26
-27
-27
-26
-28
-29
-27
-30
-31
-31
-29
-26
-27
-24
-23
-20
-16
-13
-13
-8
-4
-2
4
2
8
8
8
9
5
2
1
0
-4
-3
-5
-4
-4
-4
-1
3
-2
-1
4
6
7
5
4
6
5
4
3
4
4
6
9
11
15
18
24
25
26
31
32
34
37
31
34
28
29
30
27
29
30
27
32
31
27
30
30
31
31
31
31
29
31
30
23
23
21
17
16
14
12
12
16
14
11
9
7
5
5
2
-1
2
-3
-6
-2
2
3
10
9
3
-14
-37
-73
-111
-157
-202
-238
-218
-163
-104
-60
-25
-10
7
16
21
24
24
27
26
25
26
24
24
22
23
20
15
13
16
16
18
15
17
13
14
15
17
17
15
16
15
12
9
12
11
9
4
6
5
2
-2
-4
-1
-4
-9
-6
1
-1
5
9
11
14
15
18
18
16
13
14
9
10
6
4
-2
-10
-12
-17
-20
-19
-25
-22
-24
-24
-28
-32
-33
-35
-34
-35
-34
-35
-30
-30
-28
-29
-28
-26
-29
-25
-27
-22
-24
-25
-24
-26
-31
-35
-30
-33
-30
-35
-36
-37
-34
-36
-38
-40
-41
-42
-46
-45
-41
-43
-44
-44
-44
-44
-44
-48
-50
-44
-48
-48
-50
-47
-48
-40
-42
-42
-42
-39
-45
-36
-43
-42
-45
-37
-38
-31
-23
-15
-14
-20
-36
-63
-95
-132
-180
-227
-253
-232
-179
-121
-71
-44
-21
-11
2
9
10
15
16
17
17
18
25
20
26
22
23
21
25
25
23
19
22
24
19
22
21
19
15
14
13
13
10
7
7
8
5
12
9
9
10
9
8
7
9
12
13
19
21
21
23
24
28
29
29
30
33
35
30
29
28
28
26
28
28
25
24
20
17
19
19
21
25
26
24
24
20
24
24
23
23
21
24
25
21
20
17
19
19
18
19
18
12
10
12
10
8
8
11
11
11
11
7
18
19
19
20
16
18
19
20
17
17
9
7
-1
-4
-6
-11
-14
-25
-26
-28
-22
-23
-22
-20
-18
-17
-14
-14
-15
-18
-19
-15
-16
-10
-5
7
13
17
9
-5
-31
-62
-98
-143
-193
-216
-188
-137
-76
-38
-8
6
19
28
29
33
33
35
40
36
39
34
36
33
35
34
32
30
30
29
26
26
24
21
20
18
20
21
25
30
37
41
45
52
56
62
69
70
74
77
79
82
84
83
85
87
88
85
87
89
89
94
91
92
90
89
85
86
82
77
75
71
71
65
61
56
52
47
47
43
42
43
44
39
33
32
29
27
19
19
12
3
2
-9
-13
-20
-26
-27
-34
-40
-45
-49
-45
-42
-45
-43
-39
-35
-33
-31
-26
-25
-21
-19
-19
-22
-21
-26
-29
-32
-42
-49
-57
-60
-60
-68
-72
-72
-77
-75
-74
-72
-73
-71
-69
-73
-68
-71
-73
-71
-68
-68
-64
-59
-50
-38
-32
-25
-24
-43
-60
-93
-128
-171
-221
-249
-228
-171
-116
-75
-45
-27
-12
-7
-2
4
8
15
19
22
19
18
19
22
25
32
32
29
29
23
20
15
7
7
6
9
10
7
5
0
-5
-4
-4
-1
1
-1
-6
-9
-12
-13
-8
-12
-5
-6
-2
0
-1
-1
-1
2
5
8
9
9
4
2
0
2
-3
-6
-9
-13
-17
-21
-22
-26
-23
-23
-22
-27
-33
-32
-32
-33
-29
-28
-27
-29
-24
-25
-25
-20
-19
-15
-16
-18
-20
-21
-19
-15
-12
-13
-9
-5
0
-1
-8
-8
1
3
6
8
5
2
-3
-9
-13
-19
-19
-22
-28
-29
-30
-32
-34
-34
-30
-32
-33
-28
-25
-13
-7
0
4
10
16
24
30
36
44
51
59
64
66
58
41
20
-8
-44
-82
-118
-124
-79
-21
30
67
83
98
104
111
113
121
123
123
124
123
120
120
116
111
107
104
96
98
94
93
92
90
86
77
70
68
67
64
59
58
54
52
46
40
38
38
35
33
32
28
25
23
22
20
20
17
21
24
21
21
19
19
18
16
16
15
10
5
1
-5
-4
-11
-16
-18
-30
-37
-45
-48
-51
-50
-49
-51
-50
-54
-51
-51
-53
-56
-63
-58
-60
-57
-56
-53
-51
-51
-53
-52
-53
-55
-53
-53
-53
-55
-58
-60
-61
-58
-57
-56
-54
-54
-55
-55
-55
-58
-59
-64
-66
-66
-70
-73
-75
-75
-76
-79
-80
-83
-87
-85
-87
-89
-89
-91
-92
-89
-92
-95
-92
-88
-87
-80
-81
-89
-105
-130
-158
-192
-231
-272
-280
-239
-179
-128
-96
-71
-52
-39
-28
-22
-15
-8
-2
2
6
7
12
11
15
15
18
18
20
22
24
24
25
25
27
24
24
20
24
22
21
23
21
24
25
30
29
33
33
36
33
34
30
35
35
38
37
39
39
42
43
45
43
45
43
40
37
36
36
31
23
24
17
12
11
10
6
7
4
2
3
-1
-1
2
-1
7
6
4
8
7
6
5
-1
1
-2
2
3
-1
4
-1
4
3
4
6
9
5
7
8
9
2
-1
-5
-10
-10
-10
-16
-22
-20
-23
-25
-21
-25
-17
-13
-11
-3
-3
-3
2
1
6
10
9
9
8
7
7
10
18
28
32
32
20
3
-32
-65
-105
-149
-191
-202
-161
-100
-48
-15
7
20
34
36
37
39
39
42
39
43
42
41
40
36
31
24
22
13
4
-4
-7
-13
-18
-21
-24
-26
-29
-33
-32
-38
-41
-42
-40
-49
-47
-50
-52
-55
-55
-57
-55
-52
-51
-50
-49
-45
-43
-44
-40
-40
-35
-39
-40
-40
-44
-45
-47
-50
-48
-48
-48
-45
-44
-38
-31
-31
-20
-17
-8
1
8
14
20
21
26
29
28
22
25
23
22
24
24
25
25
28
28
23
19
14
11
12
10
3
3
1
2
-1
6
4
7
6
4
-6
-6
-10
-9
-15
-17
-21
-20
-16
-14
-15
-12
-14
-9
-4
4
6
14
20
27
40
52
56
70
75
74
72
54
31
3
-28
-69
-102
-111
-80
-27
13
39
50
54
53
51
47
44
42
44
37
33
32
26
26
24
18
19
19
23
26
30
34
38
41
48
53
53
48
46
48
49
47
43
38
31
35
29
25
22
20
20
17
17
15
14
12
9
10
6
2
-3
-3
-9
-8
-17
-24
-28
-32
-39
-47
-50
-54
-53
-53
-57
-59
-60
-59
-55
-52
-53
-54
-50
-48
-51
-46
-42
-38
-33
-32
-33
-30
-30
-27
-26
-24
-22
-21
-19
-11
-6
-3
10
15
19
25
28
22
27
26
29
27
26
24
20
21
19
15
12
14
10
14
19
25
33
41
42
45
45
45
45
39
30
20
9
4
-4
-5
-11
-25
-39
-67
-89
-122
-155
-172
-152
-101
-45
-16
5
10
13
16
7
7
5
-2
-5
-10
-21
-31
-31
-35
-36
-42
-49
-55
-65
-75
-80
-90
-92
-92
-99
-96
-95
-91
-86
-85
-83
-80
-79
-72
-66
-59
-52
-51
-51
-48
-44
-38
-33
-24
-18
-15
-8
-2
0
-7
-18
-41
-65
-87
-109
-126
-140
-162
-183
-198
-216
-232
-244
-252
-255
-256
-251
-239
-223
-200
-178
-156
-132
-112
-88
-69
-51
-32
-20
-4
8
17
25
33
47
55
67
73
83
89
96
102
107
115
123
125
131
131
135
138
138
135
135
135
134
136
135
133
128
127
123
125
120
115
110
110
109
110
104
102
98
99
98
101
105
113
106
98
77
54
22
-17
-62
-87
-78
-22
39
83
111
121
132
142
139
137
140
139
138
139
136
131
129
125
124
123
122
119
115
113
106
105
105
105
103
102
95
95
98
95
92
89
88
83
86
86
88
90
87
86
90
89
94
92
92
89
90
87
88
84
80
76
71
66
65
61
51
45
43
38
32
27
24
19
17
16
11
7
7
1
0
-4
-1
-1
4
-5
-9
-9
-12
-18
-18
-22
-20
-22
-22
-24
-27
-25
-24
-28
-32
-35
-36
-39
-39
-37
-36
-40
-41
-46
-53
-60
-61
-63
-59
-59
-56
-50
-42
-37
-32
-28
-24
-22
-19
-12
-8
-4
-5
-4
5
7
12
22
27
21
9
-9
-37
-68
-101
-142
-172
-150
-89
-24
23
45
51
52
55
53
54
54
55
61
68
68
68
63
60
50
47
44
37
33
30
31
33
33
29
28
29
31
34
36
34
33
30
29
27
22
18
13
11
9
7
4
-4
-9
-13
-15
-18
-21
-21
-23
-28
-33
-37
-38
-41
-47
-50
-53
-61
-62
-67
-67
-67
-68
-69
-71
-75
-82
-83
-84
-82
-79
-81
-82
-81
-83
-85
-90
-92
-90
-94
-95
-97
-96
-97
-100
-99
-109
-109
-114
-111
-108
-111
-110
-111
-110
-112
-113
-108
-113
-108
-109
-105
-106
-100
-96
-91
-80
-74
-76
-81
-86
-90
-89
-89
-83
-82
-72
-67
-55
-49
-35
-25
-17
-13
-22
-32
-53
-75
-112
-148
-185
-178
-118
-49
6
32
46
57
66
68
70
71
73
69
69
67
64
56
48
43
43
46
49
51
49
45
42
36
30
26
24
23
20
18
16
20
23
32
32
29
29
26
28
23
14
4
-8
-16
-28
-35
-39
-45
-48
-50
-52
-57
-69
-74
-86
-97
-104
-113
-121
-125
-127
-131
-131
-128
-131
-136
-135
-139
-143
-145
-146
-148
-153
-172
-176
-157
-119
-72
-34
-8
26
58
83
91
89
79
70
67
61
64
60
61
59
51
41
33
18
6
-4
-15
-25
-33
-40
-46
-54
-60
-64
-73
-79
-79
-80
-77
-72
-69
-68
-60
-53
-44
-33
-24
-17
-11
-1
2
-9
-29
-56
-91
-134
-181
-244
-283
-274
-212
-148
-110
-97
-89
-78
-72
-69
-62
-58
-50
-39
-24
-17
-7
2
7
10
16
24
36
49
53
58
57
46
33
19
9
6
7
9
12
16
19
12
8
-5
-8
-15
-16
-12
-8
-9
-15
-20
-30
-37
-48
-53
-60
-64
-70
-80
-88
-93
-102
-112
-113
-107
-99
-94
-83
-86
-86
-88
-92
-93
-97
-100
-109
-108
-112
-113
-114
-116
-119
-120
-124
-126
-132
-133
-131
-136
-134
-132
-132
-136
-134
-129
-123
-105
-88
-69
-50
-37
-29
-23
-18
-19
-31
-40
-44
-50
-50
-51
-54
-57
-53
-52
-55
-58
-59
-56
-48
-49
-45
-49
-51
-53
-55
-61
-64
-72
-99
-132
-178
-237
-298
-356
-423
-479
-489
-465
-433
-408
-394
-392
-391
-391
-389
-376
-352
-332
-302
-270
-239
-200
-166
-139
-109
-79
-52
-24
10
38
62
85
110
135
160
189
214
236
257
278
296
313
333
347
365
381
399
411
421
435
456
487
524
559
586
607
619
617
614
603
590
570
552
533
514
495
479
455
437
417
398
375
352
322
291
253
212
172
148
134
124
129
140
161
188
217
240
248
256
268
274
278
279
273
269
263
257
244
219
192
175
164
158
154
147
143
143
136
136
130
126
124
119
125
124
120
116
107
105
100
87
84
76
72
69
64
61
62
64
67
77
63
46
22
-19
-57
-104
-164
-212
-210
-148
-77
-20
13
34
43
45
40
30
14
-3
-19
-31
-44
-50
-61
-64
-66
-66
-73
-75
-79
-84
-95
-106
-123
-140
-152
-169
-177
-176
-163
-152
-137
-118
-98
-73
-45
-17
18
43
64
78
94
112
117
118
118
112
103
99
100
111
130
154
176
191
197
193
181
161
142
113
91
67
46
19
0
-17
-40
-58
-83
-109
-136
-168
-202
-231
-264
-293
-330
-358
-381
-397
-412
-409
-403
-396
-381
-367
-345
-324
-302
-287
-274
-272
-279
-286
-294
-302
-306
-309
-302
-298
-292
-283
-266
-250
-235
-222
-208
-200
-197
-198
-198
-197
-186
-179
-170
-158
-149
-134
-122
-116
-122
-138
-168
-200
-239
-282
-336
-354
-324
-260
-201
-165
-138
-121
-113
-105
-100
-101
-100
-93
-85
-82
-72
-72
-64
-56
-52
-53
-52
-52
-50
-48
-45
-49
-46
-49
-48
-48
-48
-48
-45
-45
-41
-37
-34
-31
-28
-20
-19
-13
-6
0
4
8
19
24
36
42
48
56
67
80
87
100
104
111
118
122
129
131
136
136
141
144
141
138
131
128
119
114
106
93
88
80
76
77
76
65
55
36
16
-9
-30
-57
-84
-107
-132
-153
-173
-185
-188
-192
-193
-186
-178
-173
-156
-146
-140
-132
-118
-106
-88
-73
-56
-44
-33
-17
-3
16
35
52
62
81
92
99
116
127
136
150
150
138
117
79
32
-13
-64
-122
-153
-132
-79
-21
23
51
69
87
99
111
115
122
125
129
133
138
130
125
122
113
109
101
98
90
90
86
78
74
74
67
59
55
51
45
38
28
15
0
-12
-37
-51
-59
-60
-50
-37
-26
-9
9
23
30
42
45
46
53
54
56
65
66
72
74
72
70
63
54
48
43
40
38
36
30
30
29
27
24
18
15
10
0
-9
-12
-18
-27
-37
-44
-55
-63
-66
-70
-76
-79
-77
-76
-73
-67
-61
-52
-43
-33
-24
-15
-5
7
15
25
33
43
50
56
55
54
51
43
35
27
21
13
7
0
-2
-2
-1
4
3
1
-13
-27
-54
-82
-117
-154
-187
-204
-168
-105
-50
-13
10
25
29
28
24
22
17
17
15
19
19
17
17
21
17
20
20
18
22
21
20
21
14
11
8
-7
-20
-33
-44
-46
-47
-48
-42
-32
-22
-8
3
17
28
39
49
59
65
76
84
90
95
105
109
115
121
125
129
131
130
127
121
113
111
102
91
78
69
60
52
48
42
38
36
31
28
21
21
15
12
5
0
-4
-17
-25
-31
-37
-45
-49
-57
-60
-63
-66
-69
-74
-76
-83
-84
-90
-94
-93
-91
-88
-79
-70
-60
-51
-42
-39
-32
-35
-33
-30
-31
-30
-27
-29
-24
-19
-10
-1
11
20
18
7
-12
-36
-67
-102
-144
-177
-159
-105
-52
-14
16
30
40
43
49
48
51
49
51
52
54
51
54
60
62
68
70
72
76
78
78
78
76
75
79
77
79
84
87
92
94
97
102
99
102
101
103
101
96
98
96
92
90
88
80
71
60
47
40
26
14
4
-6
-10
-19
-23
-26
-28
-28
-33
-31
-34
-34
-38
-36
-41
-45
-43
-44
-47
-53
-57
-61
-64
-70
-76
-85
-89
-94
-100
-100
-100
-94
-90
-87
-79
-77
-65
-63
-57
-54
-50
-44
-45
-39
-40
-37
-36
-34
-31
-29
-22
-18
-10
-7
-1
5
9
9
12
13
11
13
16
18
24
30
39
37
25
11
-18
-49
-89
-135
-183
-198
-162
-108
-61
-29
-8
10
20
23
28
35
37
41
40
39
36
31
30
25
16
15
7
4
2
-5
-7
-13
-11
-16
-17
-18
-19
-19
-18
-21
-20
-24
-26
-29
-31
-37
-40
-46
-49
-54
-57
-58
-60
-58
-61
-63
-61
-64
-65
-57
-59
-58
-58
-59
-61
-65
-64
-65
-67
-72
-74
-73
-74
-68
-72
-66
-67
-65
-59
-58
-57
-52
-50
-50
-43
-44
-40
-39
-36
-35
-29
-26
-23
-23
-19
-18
-9
-3
-7
-4
-3
0
-3
-1
2
0
-3
-5
-4
1
1
3
-1
4
7
5
7
5
3
1
0
-5
-4
-7
-6
4
15
19
19
8
-14
-42
-76
-119
-162
-202
-208
-161
-105
-57
-25
-6
7
22
28
38
41
46
53
62
62
63
67
68
67
68
67
67
64
64
62
61
59
62
61
62
57
62
60
61
62
63
62
53
52
41
40
33
29
26
23
20
20
15
19
17
15
15
16
16
17
14
8
6
6
-5
-12
-17
-24
-25
-30
-30
-31
-32
-33
-38
-39
-38
-41
-39
-39
-40
-36
-36
-40
-39
-39
-42
-43
-45
-54
-54
-58
-67
-70
-75
-77
-80
-86
-93
-90
-91
-88
-80
-73
-67
-58
-47
-35
-24
-12
-5
12
26
34
43
53
60
68
70
76
66
60
53
43
32
31
27
35
39
46
36
22
-4
-41
-76
-121
-176
-211
-192
-139
-83
-42
-15
3
17
24
27
25
25
21
23
23
23
24
21
23
22
25
32
29
33
33
30
30
28
23
25
28
28
24
24
23
22
25
25
25
23
27
30
28
28
36
42
37
46
50
48
52
58
58
62
66
61
59
57
55
53
47
40
34
31
30
27
23
20
23
23
20
20
20
16
15
16
18
15
19
22
22
21
20
20
19
18
19
18
20
18
18
15
17
11
13
11
8
5
1
-4
-8
-12
-18
-24
-29
-29
-31
-28
-24
-24
-23
-20
-25
-24
-24
-25
-26
-28
-26
-32
-29
-22
-10
-1
9
5
-9
-38
-74
-112
-161
-211
-251
-245
-189
-131
-85
-56
-38
-23
-13
-8
-8
-6
-4
-2
-5
-6
0
-1
-1
-3
-3
1
-2
1
-5
0
-5
-2
-7
-3
-2
-8
-6
-5
-5
-4
-5
-3
-4
-7
-7
-3
-5
-5
-4
-3
-6
-6
-3
-2
-1
1
2
5
5
4
3
3
3
0
-7
-11
-10
-13
-17
-21
-23
-23
-27
-26
-26
-25
-26
-22
-22
-19
-18
-18
-16
-15
-16
-16
-17
-15
-15
-12
-11
-8
-7
-6
-3
3
1
6
2
8
9
7
8
7
3
3
3
-3
-4
-9
-11
-8
-9
-5
-2
0
-3
-2
1
-2
-7
-2
-5
-8
-6
-4
-1
14
21
21
11
-7
-34
-65
-108
-152
-192
-218
-195
-136
-79
-40
-17
-4
7
12
16
17
14
17
17
17
16
14
12
14
13
13
13
11
8
6
7
4
3
3
2
4
5
1
4
1
2
-1
4
4
1
4
7
5
7
7
7
10
11
14
16
12
10
14
16
16
14
12
11
11
11
7
7
6
0
-2
1
-1
0
0
-2
-5
-6
-5
-9
-5
0
0
-2
-5
-5
0
-1
-1
-2
-3
-1
2
4
2
3
6
7
9
10
12
16
16
17
16
17
7
5
4
4
-1
-5
-2
-5
-6
-8
-3
-3
0
3
2
6
7
8
4
3
4
3
3
11
13
20
18
4
-14
-43
-73
-114
-158
-205
-229
-205
-152
-98
-69
-44
-34
-25
-22
-21
-18
-20
-19
-18
-17
-17
-10
-8
-13
-5
-4
-4
-2
-2
0
3
7
6
6
6
7
7
12
12
12
13
13
16
18
20
20
21
19
26
29
30
31
34
38
40
39
43
42
44
46
46
47
48
44
38
38
35
34
29
22
21
22
23
18
14
17
15
18
13
14
12
9
7
5
9
7
10
10
14
10
11
13
9
10
16
19
17
19
20
19
21
22
22
20
20
20
15
11
3
4
-3
-9
-4
-6
-6
-3
-2
2
2
5
6
5
2
-1
-2
6
11
12
15
25
32
25
14
-10
-35
-74
-112
-164
-214
-230
-189
-128
-74
-33
-11
0
8
14
14
16
20
17
19
17
16
11
7
7
5
2
-3
-4
-10
-16
-18
-17
-22
-29
-31
-35
-36
-32
-37
-35
-35
-35
-34
-33
-34
-36
-35
-32
-33
-32
-29
-25
-22
-16
-12
-6
-3
3
3
7
12
12
13
12
14
14
9
5
5
0
-2
-2
-8
-6
