# ASI test file format
# {"":{"device ID": "","comments": "1min setup - 2 min rest - 30sec moving the cables - 2 min rest - 30sec shaking the device - 2min planche and 2min rest. Fabric rinsed by water.","keywords": "Fieldwiz + Version 2, Test","firmware version": "","device": "FieldWiz + Version 2","sampling rate": 250,"resolution": "[16-bit]","date": "2020-03-27","column": ["A1","ECG"],"sensor": ["RAW, ECG"],"label": ["ECG"]}
}
# EndOfHeader
-107
1350
2047
2047
2047
2047
2047
2047
2047
2047
2047
2047
2047
2047
2047
2047
2047
2047
2047
2047
2047
2047
2047
2047
2047
2047
2047
2047
2047
2047
2047
2047
2047
2047
2047
2047
2047
2047
2047
2047
2047
2047
2047
2047
2047
1928
1748
1584
1455
1351
1261
1182
1102
1039
997
960
912
843
773
722
681
637
576
514
457
400
342
291
238
187
130
66
13
-11
-23
-25
-29
-33
-29
-29
-35
-31
-34
-36
-32
-39
-33
-36
-33
-35
-39
-34
-34
-34
-39
-40
-35
-39
-36
-38
-40
-43
-46
-49
-39
-25
-42
-37
-26
-41
-44
-49
-38
-48
-44
-43
-42
-41
-49
-48
-50
-50
-44
-51
-52
-35
-57
-56
-54
-33
-51
-35
-67
-62
-55
-57
-41
-36
-46
-65
-64
-47
-61
-68
-53
-68
-66
-63
-73
-42
-66
-43
-69
-72
-41
-55
-59
-64
-65
-52
-51
-56
-62
-69
-77
-59
-80
-79
-79
-53
-74
-76
-71
-77
-76
-54
-57
-54
-65
-66
-65
-59
-64
-57
-56
-79
-74
-80
-58
-73
-63
-66
-70
-65
-67
-77
-75
-73
-73
-73
-74
-79
-76
-78
-75
-74
-79
-78
-78
-78
-80
-81
-81
-80
-81
-79
-84
-85
-82
-83
-87
-79
-87
-85
-87
-84
-88
-87
-88
-82
-87
-86
-88
-86
-89
-91
-87
-87
-89
-93
-88
-91
-94
-91
-93
-90
-91
-93
-94
-93
-95
-96
-94
-96
-94
-95
-90
-94
-96
-99
-95
-98
-95
-98
-101
-96
-98
-101
-108
-98
-96
-93
-100
-96
-100
-104
-105
-100
-108
-99
-92
-112
-107
-110
-99
-98
-99
-102
-106
-104
-101
-98
-92
-83
-77
-76
-77
-82
-84
-82
-87
-83
-87
-91
-85
-85
-76
-85
-88
-88
-81
-79
-67
-67
-62
-75
-70
-69
-70
-67
-59
-56
-52
-69
-64
-50
-53
-62
-54
-52
-46
-45
-52
-53
-53
-46
-48
-51
-55
-52
-48
-46
-49
-55
-47
-46
-44
-49
-52
-51
-52
-50
-60
-58
-53
-55
-46
-40
-49
-41
-46
-45
-45
-56
-47
-46
-36
-44
-49
-35
-39
-45
-41
-45
-41
-38
-34
-40
-45
-46
-36
-40
-38
-48
-44
-41
-35
-45
-49
-41
-40
-40
-40
-46
-47
-45
-45
-50
-45
-43
-33
-36
-46
-49
-44
-35
-30
-41
-49
-30
-39
-37
-47
-38
-43
-38
-29
-43
-42
-34
-39
-32
-44
-45
-45
-32
-36
-44
-48
-40
-39
-35
-41
-51
-38
-37
-34
-42
-46
-42
-29
-37
-49
-53
-49
-26
-43
-54
-55
-32
-40
-38
-48
-42
-34
-24
-40
-33
-38
-37
-46
-45
-50
-56
-56
-47
-43
-40
-38
-26
-17
-20
-31
-37
-34
-36
-32
-37
-42
-40
-29
-33
-40
-38
-46
-29
-44
-46
-46
-31
-40
-37
-37
-36
-49
-30
-42
-42
-42
-32
-40
-39
-46
-49
-36
-36
-39
-40
-37
-43
-36
-37
-45
-40
-37
-35
-42
-42
-41
-44
-33
-40
-43
-40
-35
-41
-38
-51
-44
-49
-30
-46
-39
-28
-41
-47
-45
-48
-47
-36
-46
-35
-39
-39
-42
-30
-30
-34
-31
-25
-36
-41
-42
-38
-34
-37
-38
-38
-34
-41
-32
-41
-44
-40
-39
-36
-39
-37
-38
-36
-35
-36
-39
-42
-34
-42
-35
-32
-31
-30
-36
-46
-46
-30
-42
-45
-40
-48
-47
-44
-44
-41
-38
-33
-37
-37
-41
-38
-35
-37
-39
-42
-38
-41
-40
-41
-43
-35
-39
-42
-35
-42
-43
-41
-34
-37
-32
-40
-38
-49
-29
-43
-33
-33
-50
-42
-29
-49
-46
-35
-28
-40
-44
-44
-37
-43
-37
-44
-54
-48
-49
-40
-31
-22
-20
-19
-21
-31
-35
-27
-27
-37
-34
-31
-34
-39
-34
-41
-34
-31
-41
-26
-40
-29
-30
-25
-43
-35
-34
-30
-31
-38
-40
-44
-43
-31
-33
-36
-33
-31
-33
-44
-38
-45
-43
-47
-47
-40
-36
-42
-36
-34
-34
-39
-36
-33
-40
-39
-39
-39
-36
-34
-37
-39
-45
-30
-46
-47
-42
-39
-33
-36
-35
-44
-42
-40
-30
-28
-42
-43
-36
-35
-42
-44
-44
-36
-44
-42
-37
-41
-39
-38
-37
-41
-37
-40
-40
-37
-40
-38
-34
-38
-34
-35
-42
-39
-41
-37
-38
-38
-41
-45
-37
-24
-41
-42
-51
-28
-45
-39
-37
-27
-43
-36
-28
-40
-47
-47
-44
-41
-32
-31
-37
-36
-41
-38
-36
-34
-34
-38
-42
-36
-39
-38
-40
-40
-35
-40
-34
-37
-35
-40
-42
-34
-45
-35
-47
-47
-44
-31
-39
-42
-35
-31
-42
-33
-40
-39
-28
-48
-30
-53
-56
-56
-54
-42
-44
-33
-20
-20
-21
-23
-26
-28
-28
-32
-32
-33
-30
-34
-29
-35
-32
-38
-33
-33
-31
-34
-33
-31
-36
-32
-43
-39
-37
-42
-36
-46
-34
-38
-41
-29
-33
-44
-36
-27
-44
-40
-30
-44
-42
-41
-67
-98
-92
-81
-70
-54
-48
-41
-39
-36
-38
-39
-30
-33
-38
-33
-29
-32
-39
-34
-38
-34
-28
-27
-45
-28
-37
-41
-45
-35
-25
-43
-42
-48
-38
-26
-44
-28
-40
-48
-28
-44
-37
-30
-38
-38
-39
-50
-79
-100
-95
-82
-63
-53
-47
-40
-35
-38
-32
-36
-41
-34
-38
-33
-32
-34
-33
-38
-35
-38
-34
-30
-32
-29
-44
-26
-38
-32
-39
-44
-36
-38
-45
-44
-31
-32
-31
-37
-39
-31
-28
-47
-47
-35
-40
-72
-115
-136
-131
-109
-83
-62
-49
-39
-41
-39
-31
-36
-31
-29
-33
-36
-35
-33
-38
-28
-27
-29
-32
-24
-30
-40
-42
-54
-46
-54
-45
-27
-16
-11
-13
-33
-19
-36
-37
-46
-44
-45
-29
-45
-33
-40
-35
-56
-94
-128
-166
-157
-128
-101
-73
-58
-42
-34
-39
-37
-29
-32
-33
-34
-34
-32
-26
-27
-32
-29
-26
-32
-38
-26
-27
-22
-42
-25
-46
-19
-29
-39
-41
-47
-44
-37
-45
-24
-46
-24
-29
-27
-38
-33
-36
-40
-45
-70
-100
-152
-157
-129
-103
-73
-61
-50
-38
-35
-38
-36
-32
-26
-32
-31
-35
-34
-29
-28
-33
-30
-32
-32
-34
-38
-40
-39
-33
-34
-42
-29
-39
-36
-25
-43
-26
-44
-45
-25
-39
-27
-42
-24
-27
-30
-37
-45
-65
-83
-116
-154
-198
-233
-232
-194
-144
-98
-72
-50
-38
-29
-25
-31
-23
-26
-26
-22
-20
-25
-23
-29
-25
-26
-20
-18
-36
-30
-37
-21
-24
-23
-34
-34
-27
-25
-22
-38
-21
-22
-40
-36
-44
-24
-30
-27
-39
-36
-41
-47
-64
-96
-105
-117
-123
-164
-180
-149
-120
-89
-70
-63
-55
-38
-23
-13
-14
-13
-20
-19
-20
-23
-23
-28
-20
-28
-26
-26
-26
-20
-28
-34
-31
-38
-18
-38
-37
-37
-28
-29
-22
-43
-41
-43
-27
-34
-45
-29
-35
-32
-40
-46
-48
-64
-83
-108
-147
-172
-206
-221
-249
-283
-299
-279
-209
-140
-99
-56
-36
-34
-25
-17
-18
-14
-13
-10
-20
-17
-15
-17
-20
-13
-18
-12
-8
-24
-8
-23
-12
-12
-35
-16
-13
-27
-28
-20
-28
-40
-26
-39
-30
-41
-40
-19
-25
-42
-36
-34
-32
-46
-70
-100
-126
-159
-173
-211
-242
-261
-281
-296
-298
-240
-170
-111
-74
-45
-30
-24
-14
-17
-13
-14
-9
-10
-11
-11
-11
-12
-7
-14
-10
-17
-9
-17
-14
-6
-8
-29
-25
-9
-16
-27
-21
-37
-18
-28
-29
-40
-19
-37
-44
-20
-43
-21
-33
-46
-63
-79
-91
-108
-148
-168
-200
-205
-228
-249
-282
-305
-335
-356
-340
-262
-174
-117
-67
-39
-23
-15
-5
-7
-12
-7
-6
-15
-10
-15
-7
7
9
12
6
10
2
-9
-6
-19
1
-19
-5
-24
-24
-12
-14
-11
-26
-32
-14
-16
-33
-27
-40
-29
-29
-28
-35
-47
-68
-79
-98
-112
-145
-187
-220
-233
-253
-286
-313
-340
-364
-376
-397
-340
-245
-155
-95
-61
-30
-17
-8
2
5
5
7
8
9
7
3
8
6
2
6
-3
-1
11
12
-4
-4
-12
-2
-22
-5
-21
-21
-13
-11
-31
-28
-23
-32
-35
-35
-17
-20
-35
-27
-32
-51
-67
-73
-98
-118
-156
-176
-191
-211
-219
-252
-270
-290
-308
-336
-353
-368
-382
-389
-412
-367
-270
-172
-98
-53
-19
1
12
9
19
17
21
23
21
20
16
23
21
20
17
15
23
9
21
19
0
13
-10
5
-9
0
-4
-22
-8
-24
-6
-27
-12
-28
-31
-30
-25
-28
-25
-27
-32
-42
-40
-40
-61
-89
-100
-113
-132
-152
-168
-190
-184
-199
-212
-234
-242
-244
-252
-248
-249
-237
-250
-281
-300
-244
-169
-118
-67
-37
-14
12
19
20
22
23
23
15
16
13
6
10
14
11
8
9
-3
18
-3
-4
7
-1
-12
-5
-15
-7
-26
-8
-27
-13
-26
-28
-18
-17
-20
-28
-31
-23
-27
-40
-48
-69
-74
-94
-116
-140
-148
-161
-166
-190
-212
-217
-230
-237
-257
-283
-293
-295
-290
-302
-317
-335
-328
-341
-361
-372
-378
-391
-390
-399
-407
-407
-401
-411
-427
-430
-441
-426
-436
-403
-296
-169
-79
-19
32
50
71
75
79
79
81
87
84
82
76
78
76
78
67
77
64
76
62
61
59
44
56
32
26
30
27
28
21
15
-3
-5
10
3
-11
-14
-2
-2
-8
-16
-24
-47
-50
-66
-74
-88
-114
-125
-112
-91
-66
-51
-34
-27
-23
-22
-19
-14
-20
-13
-23
-13
-21
-16
-12
-16
-16
-13
-14
-22
-8
-27
-11
-33
-25
-25
-24
-21
-36
-28
-16
-35
-19
-23
-20
-22
-35
-30
-36
-28
-36
-30
-39
-40
-45
-61
-79
-78
-95
-106
-120
-133
-143
-145
-133
-140
-142
-170
-205
-276
-349
-328
-251
-172
-109
-59
-34
-13
-3
1
-5
-2
-3
-6
-6
-9
-10
-3
-8
-10
-10
-10
-7
-5
1
-22
-13
-7
-25
-23
-15
-18
-13
-27
-27
-16
-34
-17
-38
-23
-20
-32
-33
-34
-26
-41
-47
-44
-48
-55
-69
-86
-105
-103
-122
-134
-147
-159
-165
-163
-172
-198
-198
-200
-200
-217
-236
-244
-243
-249
-255
-278
-277
-276
-280
-296
-305
-311
-303
-306
-309
-318
-322
-315
-324
-328
-335
-332
-325
-333
-344
-351
-357
-342
-342
-351
-359
-360
-362
-363
-370
-366
-370
-373
-359
-363
-371
-387
-380
-376
-380
-376
-386
-376
-378
-376
-387
-385
-382
-369
-379
-374
-373
-367
-370
-371
-381
-369
-361
-359
-362
-368
-369
-364
-359
-352
-363
-364
-344
-346
-346
-349
-352
-347
-346
-351
-353
-339
-331
-321
-314
-325
-321
-314
-304
-311
-309
-309
-304
-299
-304
-301
-308
-295
-289
-287
-293
-292
-283
-291
-290
-305
-293
-290
-280
-275
-264
-264
-248
-240
-246
-245
-236
-236
-221
-228
-228
-219
-188
-181
-168
-180
-183
-165
-144
-127
-129
-143
-177
-172
-75
55
161
241
296
328
349
358
364
358
351
346
342
339
336
334
321
322
315
308
305
308
296
276
261
236
219
217
184
165
153
135
115
118
108
98
74
69
60
63
44
34
34
35
27
3
-8
-17
-21
-31
-39
-49
-48
-55
-50
-62
-74
-72
-79
-82
-91
-88
-96
-95
-97
-105
-111
-115
-110
-108
-122
-134
-125
-121
-118
-134
-136
-128
-132
-130
-134
-139
-139
-133
-126
-135
-138
-139
-137
-141
-141
-154
-149
-136
-138
-152
-157
-162
-157
-149
-151
-159
-162
-160
-157
-152
-157
-157
-156
-146
-160
-159
-156
-151
-144
-151
-163
-158
-155
-152
-150
-159
-155
-151
-141
-145
-146
-151
-143
-147
-151
-153
-159
-152
-144
-146
-150
-144
-140
-142
-149
-147
-138
-135
-136
-141
-141
-136
-130
-136
-131
-129
-126
-117
-115
-115
-114
-117
-116
-112
-113
-114
-122
-110
-127
-129
-135
-140
-128
-122
-129
-126
-118
-98
-101
-105
-90
-92
-80
-68
-87
-91
-82
-72
-76
-66
-75
-66
-47
-38
-26
-20
-16
-42
-90
-166
-253
-355
-461
-522
-547
-506
-409
-285
-180
-96
-54
-22
8
15
11
13
29
25
33
15
17
17
17
26
33
27
35
38
40
26
27
35
35
33
22
26
18
30
27
25
14
22
37
83
118
138
154
164
167
167
165
165
163
161
161
166
158
156
157
151
150
149
145
137
148
128
128
122
99
93
95
76
67
56
44
55
40
33
22
17
32
9
16
6
4
9
6
1
6
-4
-11
-10
0
-6
-15
-21
-17
-10
-10
-17
-25
-23
-16
-27
-27
-26
-33
-31
-20
-27
-24
-19
-8
-12
-24
-30
-29
-21
-32
-40
-43
-41
-45
-34
-38
-49
-35
-44
-50
-66
-69
-58
-55
-56
-62
-71
-70
-62
-72
-82
-77
-70
-82
-84
-90
-99
-85
-90
-91
-91
-85
-79
-83
-83
-91
-93
-85
-85
-94
-92
-103
-105
-95
-96
-98
-97
-91
-101
-108
-111
-119
-120
-132
-128
-136
-134
-131
-112
-114
-108
-119
-120
-113
-111
-112
-114
-111
-107
-112
-112
-109
-101
-84
-85
-89
-93
-78
-56
-37
-44
-60
-93
-154
-226
-328
-442
-525
-585
-577
-526
-423
-309
-210
-135
-91
-66
-47
-27
-21
-29
-19
-8
2
10
4
1
3
-2
-6
-25
-15
-5
22
21
8
-2
-7
0
1
-9
-9
3
10
10
5
-2
-13
0
-13
-9
-18
-7
6
-5
-21
-33
-35
-13
-6
-2
-10
-8
-5
-8
-13
-8
-2
6
-3
-9
-22
-28
-14
-19
-29
-28
-21
-20
-11
-20
-27
-25
-6
-9
-20
-26
-28
-13
-11
-15
-9
-3
24
37
22
19
14
12
11
-3
-2
5
17
22
19
7
8
20
21
19
19
18
19
22
22
14
17
14
21
15
15
16
20
28
21
21
10
26
25
23
20
25
29
30
22
23
30
28
35
34
21
26
41
35
32
17
19
23
36
22
15
23
31
32
30
21
20
24
31
26
8
6
5
19
-2
-10
-8
-6
-2
-9
-26
-21
-11
-13
-8
-5
7
10
2
11
10
-1
12
16
9
-3
-1
-2
10
4
-3
0
26
54
50
41
4
-46
-112
-213
-335
-418
-476
-471
-399
-293
-190
-88
-20
10
30
39
47
55
52
58
59
66
61
55
49
57
50
62
57
48
51
50
57
42
36
43
47
44
38
26
31
29
37
33
17
16
24
32
24
15
12
20
17
17
9
6
24
16
12
15
16
15
13
21
5
5
22
23
25
8
14
15
24
7
6
11
21
27
19
8
13
32
31
31
31
23
38
30
27
16
28
27
31
38
20
19
25
34
22
18
11
24
27
14
11
18
18
22
4
5
14
16
16
15
11
11
13
13
9
12
13
17
16
9
9
9
9
18
9
1
9
4
1
6
-5
5
9
16
8
4
5
9
10
5
4
-3
-27
-24
-28
-28
-29
-16
-5
-2
-20
-23
-17
-12
-22
-24
-29
-31
-37
-44
-54
-47
-40
-29
-30
-34
-24
-11
-11
-20
-19
-17
-10
-10
-11
-23
-23
-17
-8
-18
-8
-4
27
52
55
39
8
-42
-123
-224
-341
-433
-502
-499
-442
-340
-230
-132
-51
-8
7
20
43
53
53
48
50
54
64
52
44
46
46
50
40
33
32
32
29
24
14
13
19
23
16
5
3
13
22
11
-3
-1
16
14
-2
-6
-3
0
-11
-12
-21
-19
-8
-1
-11
-14
-6
-5
1
-11
-13
-11
1
3
0
-11
-2
1
4
2
-6
0
-5
8
3
-11
-7
5
14
7
3
9
13
14
0
2
-2
15
10
8
-3
4
16
11
8
7
10
19
11
8
-2
-4
8
7
3
-14
-8
5
6
6
-5
3
14
17
6
-3
3
4
7
6
0
2
1
6
-7
-2
-3
9
8
-3
-12
-9
2
-3
-9
-16
-6
8
3
-6
-13
-9
-2
-2
-8
-25
-14
2
5
0
-12
-19
-8
-13
-13
-15
-16
-8
-5
-18
-23
-24
-12
-18
-25
-46
-39
-40
-51
-63
-74
-70
-53
-46
-49
-45
-43
-38
-28
-33
-36
-29
-25
-17
-22
-33
-29
-26
-33
-32
-35
-23
-6
15
21
9
-21
-64
-139
-240
-364
-454
-505
-508
-453
-359
-246
-148
-74
-32
-11
7
25
35
27
26
27
39
40
28
20
36
28
40
28
13
11
18
17
21
10
13
15
18
10
-6
-6
1
1
-7
-13
-12
-5
-2
-7
-13
-21
-10
-12
-22
-26
-36
-30
-29
-24
-30
-28
-17
-22
-21
-27
-37
-27
-22
-23
-41
-37
-33
-31
-38
-36
-30
-19
-27
-23
-37
-28
-18
-20
-27
-32
-28
-25
-13
-16
-24
-16
-9
-7
-5
-21
-21
-11
-21
-24
-28
-31
-26
-24
-31
-32
-33
-37
-32
-43
-52
-59
-55
-50
-58
-69
-76
-83
-72
-84
-92
-95
-93
-98
-101
-110
-106
-98
-92
-102
-102
-89
-88
-77
-89
-88
-88
-80
-82
-83
-89
-88
-77
-62
-64
-78
-69
-63
-54
-65
-77
-73
-59
-52
-57
-62
-61
-55
-51
-51
-51
-51
-43
-37
-42
-47
-57
-48
-51
-51
-68
-70
-64
-71
-81
-89
-78
-61
-61
-59
-59
-47
-46
-33
-40
-36
-41
-34
-32
-40
-43
-39
-27
-27
-20
-28
-1
23
42
37
4
-47
-110
-199
-312
-414
-484
-507
-449
-365
-257
-152
-72
-19
10
24
29
49
45
37
31
37
39
45
43
38
43
50
37
29
21
19
32
39
35
24
27
30
35
26
16
20
26
23
18
26
29
28
29
20
11
17
22
20
8
-5
0
-11
-26
-19
-11
-3
14
20
11
14
20
18
15
9
10
13
16
18
12
7
18
27
32
34
26
37
48
49
43
35
47
48
45
38
34
39
52
47
44
35
39
48
43
40
39
36
38
39
30
28
31
31
36
34
25
23
40
35
29
28
28
28
38
29
31
41
44
43
40
24
23
33
38
33
18
16
27
29
29
18
24
26
26
13
6
10
18
23
21
15
13
16
19
20
11
10
13
7
2
-4
0
8
11
0
-7
-6
2
5
2
-7
-6
4
10
5
1
-3
0
3
-15
-11
-19
-25
-24
-31
-41
-33
-30
-22
-30
-27
-19
-4
-9
-17
-21
-15
-10
-10
-15
-27
-23
-16
-13
-7
-10
8
27
43
37
17
-29
-77
-153
-274
-391
-472
-516
-502
-431
-319
-195
-106
-29
-5
22
28
34
42
29
27
39
53
51
41
43
44
46
43
37
35
39
41
43
27
18
25
33
26
19
14
12
13
14
10
6
10
7
13
-9
-9
-8
-2
2
-5
-16
-6
-14
-20
-23
-28
-22
-15
-13
-10
-24
-18
-7
-16
-13
-25
-25
-7
-10
-22
-25
-22
-15
-13
-12
-19
-17
-10
-6
-12
-19
-12
3
0
-13
-14
-7
2
6
-6
-14
-5
-13
-11
-17
-16
-23
4
15
8
1
8
6
4
-16
-26
-23
-14
-10
-13
-28
-29
-12
-16
-17
-26
-27
-9
-10
-12
-20
-18
-11
-13
-12
-9
-5
3
13
6
12
17
26
35
30
14
25
31
33
30
41
38
44
40
38
45
55
57
59
51
47
64
71
68
61
58
54
53
57
55
64
68
68
64
65
68
78
77
83
69
71
73
88
94
95
97
94
98
98
83
91
92
86
75
65
56
53
56
55
60
66
86
88
86
89
100
104
121
117
116
106
112
105
104
93
85
84
103
107
117
125
144
131
95
31
-43
-128
-231
-339
-412
-416
-341
-224
-117
-13
45
93
125
124
118
118
121
127
120
119
127
127
128
116
107
104
110
113
99
88
85
81
88
79
75
65
64
60
44
37
36
42
38
32
31
35
46
41
33
24
13
16
12
-2
5
5
16
17
-3
-17
-7
-2
6
5
3
-3
-2
-5
-20
-25
-20
-16
-24
-26
-20
-10
-5
-7
-11
-16
-20
-27
-28
-31
-32
-27
-16
-21
-23
-23
-15
-13
-25
-35
-28
-26
-24
-42
-49
-49
-52
-48
-61
-57
-60
-55
-52
-57
-62
-64
-75
-68
-64
-64
-64
-63
-67
-55
-52
-67
-76
-73
-87
-81
-87
-80
-81
-72
-83
-94
-91
-100
-99
-110
-125
-115
-110
-96
-105
-117
-120
-124
-133
-136
-137
-137
-137
-142
-153
-148
-143
-131
-130
-129
-134
-128
-121
-107
-116
-120
-109
-104
-101
-100
-105
-103
-103
-100
-93
-92
-96
-95
-98
-93
-90
-93
-96
-101
-103
-103
-96
-85
-80
-71
-67
-70
-60
-52
-51
-50
-45
-37
-35
-25
-33
-31
-24
-19
-36
-40
-29
0
26
37
44
17
-24
-97
-187
-302
-400
-483
-511
-473
-371
-267
-158
-77
-35
6
14
12
16
11
1
-2
18
24
25
20
22
13
12
9
-2
-6
-1
-5
-10
-13
-6
9
7
3
-13
-19
-15
-13
-24
-35
-46
-51
-46
-43
-40
-45
-43
-49
-52
-52
-61
-59
-62
-68
-73
-75
-57
-54
-54
-55
-49
-52
-53
-49
-52
-54
-43
-49
-61
-65
-67
-53
-52
-60
-57
-52
-45
-43
-42
-60
-65
-53
-38
-23
-26
-20
-26
-29
-28
-39
-35
-32
-32
-33
-41
-40
-42
-40
-45
-42
-34
-39
-36
-45
-44
-43
-53
-53
-49
-47
-41
-27
-19
-18
-27
-29
-27
-28
-33
-33
-21
-25
-26
-34
-36
-41
-37
-36
-30
-36
-32
-36
-30
-36
-31
-27
-11
-19
-27
-36
-31
-26
-26
-27
-35
-22
-26
-29
-27
-28
-21
-16
-19
-20
-21
-12
-7
-7
-5
3
-7
-7
-13
-29
-33
-15
8
11
3
3
4
10
-4
-15
-17
-16
-21
-18
-43
-47
-41
-25
1
11
15
18
26
25
29
26
28
28
27
21
27
29
27
26
24
30
49
70
82
66
33
-28
-91
-193
-317
-408
-480
-477
-397
-289
-180
-89
-24
28
59
65
66
76
75
74
66
64
67
71
60
59
61
64
66
62
56
58
63
61
50
38
42
42
44
36
29
25
37
37
23
15
16
23
22
27
17
20
11
20
12
4
5
15
9
-3
-9
-5
2
-6
5
-8
-11
-6
-5
-6
-8
-14
-7
-5
-10
-13
-8
9
8
6
2
5
7
11
13
10
3
14
15
4
3
-10
4
5
7
4
0
7
6
-1
-6
-5
0
3
-8
-15
-19
-10
-6
-15
-19
-14
-12
-11
-11
-19
-13
-15
-8
-19
-25
-28
-27
-22
-31
-30
-24
-27
-26
-28
-26
-28
-35
-24
-27
-32
-34
-25
-25
-37
-44
-48
-33
-32
-31
-42
-40
-37
-37
-42
-46
-47
-37
-41
-43
-53
-46
-44
-46
-46
-65
-62
-50
-47
-49
-57
-58
-61
-48
-60
-69
-62
-61
-69
-69
-69
-74
-73
-68
-61
-77
-75
-77
-81
-82
-84
-86
-85
-90
-107
-114
-117
-113
-103
-96
-90
-89
-79
-66
-64
-76
-70
-62
-62
-55
-56
-65
-62
-65
-60
-76
-67
-42
-19
-19
-25
-45
-83
-144
-227
-327
-437
-519
-564
-546
-470
-360
-247
-152
-80
-42
-33
-6
5
20
25
26
29
36
38
32
30
33
39
28
26
23
18
24
24
9
14
13
17
6
4
2
1
-9
-8
-20
-23
-8
-8
-17
-18
-17
-22
-14
-12
-20
-25
-20
-20
-33
-31
-27
-26
-27
-28
-35
-33
-41
-39
-37
-58
-56
-44
-51
-56
-56
-58
-47
-40
-47
-49
-54
-54
-37
-33
-35
-35
-21
-18
-29
-31
-33
-30
-28
-33
-30
-27
-29
-17
-20
-27
-30
-26
-25
-29
-38
-36
-37
-27
-41
-42
-37
-36
-29
-29
-29
-25
-29
-22
-24
-30
-30
-28
-23
-26
-35
-37
-32
-29
-24
-32
-28
-30
-23
-26
-31
-37
-26
-23
-27
-24
-24
-22
-19
-23
-25
-19
-12
-7
-11
-4
-5
4
-7
-4
-9
-5
6
8
-6
-6
-14
-9
-5
-6
-13
-15
-14
-9
-9
-16
-22
-12
-8
5
-4
-11
0
-3
-15
-16
-19
-19
-18
-39
-52
-47
-41
-39
-37
-38
-28
-21
-8
-17
-21
-17
-9
-7
-4
-13
-8
-9
-9
-9
-19
-12
6
16
18
38
40
32
-10
-78
-179
-263
-374
-452
-500
-485
-394
-271
-169
-85
-31
14
43
44
47
52
53
52
55
56
50
55
70
69
67
53
67
70
70
64
50
57
57
58
53
45
48
56
57
59
51
51
47
45
47
35
34
44
39
37
28
33
26
24
15
21
11
27
27
22
18
27
28
19
19
9
24
21
24
16
7
11
19
16
7
9
6
21
32
16
21
21
27
26
17
14
9
14
17
2
-6
1
2
1
-4
-3
-3
3
1
-6
-1
-4
1
9
10
2
-1
7
7
3
1
5
16
4
4
3
-1
11
12
10
3
5
13
14
16
4
8
16
19
8
13
16
20
25
-1
-4
0
13
15
3
4
9
15
17
4
3
11
10
3
8
2
13
22
22
18
13
14
4
6
1
-6
0
1
2
2
-6
10
10
14
7
-5
-9
4
8
10
2
7
4
-1
7
-8
-8
-8
-10
-23
-35
-30
-34
-32
-55
-48
-52
-42
-37
-31
-37
-24
-20
-14
-23
-29
-17
-17
-15
-15
-23
-20
-9
-10
-10
0
18
40
41
14
-41
-104
-165
-265
-382
-480
-539
-502
-429
-320
-212
-114
-49
-14
4
9
20
35
42
35
26
38
32
41
38
35
36
43
45
36
35
27
20
19
23
19
21
19
22
24
13
11
17
13
5
6
1
12
-4
-9
-22
-12
-15
-13
-14
-21
-12
-6
-16
-22
-20
-25
-14
-8
-11
-19
-23
-14
-13
-17
-22
-24
-15
-21
-34
-31
-28
-25
-24
-24
-33
-22
-17
-22
-16
-25
-13
-12
-9
-16
-39
-46
-55
-66
-85
-96
-86
-77
-77
-75
-81
-84
-67
-69
-85
-89
-84
-76
-77
-74
-75
-68
-62
-62
-61
-70
-62
-57
-58
-51
-52
-44
-42
-46
-48
-45
-45
-37
-36
-34
-46
-39
-38
-35
-31
-45
-33
-37
-24
-27
-38
-32
-32
-27
-34
-36
-37
-34
-30
-40
-36
-24
-22
-23
-27
-33
-24
-30
-31
-27
-37
-31
-27
-23
-26
-26
-30
-26
-24
-25
-22
-24
-22
-12
-27
-20
-16
-13
-16
-22
-20
-25
-6
0
-4
6
9
22
17
12
10
18
28
23
23
13
9
17
10
-7
-17
-19
-11
-5
-20
-15
-18
-9
-5
0
-9
-5
5
4
7
-8
6
3
9
4
3
12
15
18
27
47
66
66
42
-27
-94
-183
-292
-377
-461
-489
-432
-333
-232
-139
-60
-6
37
51
47
52
60
65
66
57
64
70
71
73
51
54
54
64
64
46
46
39
45
43
48
45
41
50
35
28
27
19
27
22
18
14
18
7
9
12
3
0
9
4
6
-9
-4
1
-4
-8
0
1
9
11
5
-1
-4
10
6
-10
-9
-3
3
-6
-9
0
9
9
10
3
6
16
27
28
26
14
20
28
24
24
24
21
28
19
17
17
22
31
16
12
8
16
19
12
1
-11
-2
3
6
3
-8
8
9
0
-3
-16
-14
-9
-1
-7
-16
-6
5
9
1
-11
-3
0
7
4
3
3
15
20
11
5
10
12
19
16
6
3
8
11
14
0
15
9
14
4
6
15
15
19
3
-2
11
18
11
2
2
0
5
1
1
-13
-5
2
-2
-12
-17
-10
4
-4
-5
-17
-13
-10
-4
-19
-22
-15
-16
-14
-15
-17
-12
-9
-13
-15
-19
-17
-17
-23
-32
-35
-37
-41
-49
-58
-56
-56
-59
-51
-48
-57
-48
-41
-31
-35
-36
-38
-23
-33
-30
-45
-39
-50
-52
-66
-85
-77
-65
-45
-45
-48
-70
-118
-187
-285
-389
-484
-562
-584
-545
-447
-316
-210
-124
-80
-44
-31
-11
-4
6
7
8
11
15
18
3
13
12
21
7
4
5
11
14
15
8
14
10
8
2
0
6
5
-5
-4
-5
2
-12
-9
-21
-20
-32
-20
-29
-36
-39
-29
-25
-35
-34
-39
-37
-23
-24
-23
-30
-19
-21
-16
-23
-33
-17
-18
-19
-13
-26
-25
-16
-14
-14
-11
-3
0
-5
-10
0
5
9
4
6
1
5
16
16
1
3
8
7
8
8
0
4
3
9
2
11
7
10
7
-7
1
10
11
5
-8
3
-6
3
-5
1
-5
-2
-3
6
-1
-17
-7
-12
-10
-8
-4
-7
8
6
0
-9
0
-1
7
-8
-5
-3
4
-8
-17
-10
-5
0
0
-3
-15
-5
-7
3
-2
-16
-13
-2
-5
-12
-10
-6
-6
-12
-20
-19
-13
-2
-15
-20
-23
-18
-11
-15
-18
-20
-5
-12
-18
-21
-16
-14
-10
-18
-16
-19
-13
-14
-17
-16
-29
-22
-18
-24
-32
-22
-20
-7
-14
-16
-27
-12
-15
-22
-32
-27
-32
-33
-37
-50
-58
-66
-54
-54
-61
-56
-55
-34
-40
-38
-36
-31
-30
-41
-50
-46
-41
-27
-25
-42
-43
-44
-20
-32
-24
-10
11
8
-20
-76
-146
-231
-329
-431
-517
-545
-496
-391
-280
-188
-104
-59
-12
-7
4
13
21
36
40
31
25
34
26
30
29
33
32
42
25
29
19
30
34
37
33
43
52
56
41
38
29
32
35
27
25
30
30
42
34
27
16
19
19
25
15
15
19
28
21
13
16
15
28
11
5
7
14
21
21
9
16
20
13
23
17
16
19
24
30
13
13
26
24
27
28
26
41
43
38
32
21
25
36
29
21
15
26
25
17
12
14
3
8
11
5
-2
-1
10
1
-8
-5
3
-2
4
0
-2
-8
10
4
-2
-10
1
15
7
-3
-4
-3
8
-1
-10
-9
5
1
3
-10
-6
-11
-6
-7
-9
-15
-2
-12
-19
-13
-20
-9
-17
-10
-23
-21
-19
-12
-16
-19
-15
-6
-6
-14
-14
-13
-17
-10
-22
-24
-24
-23
-17
-25
-37
-40
-32
-28
-34
-39
-35
-27
-28
-25
-36
-34
-30
-24
-31
-41
-39
-37
-35
-33
-42
-36
-35
-37
-55
-52
-70
-58
-63
-57
-60
-53
-41
-44
-35
-36
-38
-31
-23
-30
-35
-30
-26
-31
-27
-33
-28
-24
-19
-21
-1
17
37
24
-15
-71
-139
-226
-335
-437
-501
-516
-457
-342
-237
-134
-69
-17
20
36
32
21
38
32
34
29
34
41
44
39
35
31
38
45
37
29
30
30
28
26
14
9
5
17
16
2
6
15
12
12
-1
1
4
0
0
-6
-11
-12
-2
-11
-4
-13
-10
-7
-16
-20
-25
-15
-15
-14
-21
-10
-13
-13
-8
-17
-19
-20
-19
-15
-11
-11
0
8
1
-9
-4
7
9
14
6
14
25
19
23
19
10
15
6
8
3
11
6
10
2
3
-9
-2
2
-2
-8
-7
3
0
-9
-7
-12
-10
-4
-1
-9
-5
-10
-11
-10
-23
-23
-32
-39
-55
-63
-61
-71
-64
-68
-75
-71
-72
-71
-75
-78
-69
-59
-65
-61
-72
-64
-56
-47
-50
-53
-56
-43
-39
-42
-46
-39
-36
-40
-42
-37
-42
-40
-29
-24
-39
-27
-23
-20
-22
-26
-20
-17
-4
-15
-13
-19
-11
-6
-11
-5
-4
4
14
9
1
-2
-4
4
13
1
11
17
22
12
13
1
16
8
5
-8
-13
-12
-16
-24
-29
-32
-32
-24
-25
-22
-9
-5
-4
-7
-15
-11
-12
-3
-13
-15
-16
-11
-20
-15
-27
-7
2
26
36
32
3
-23
-88
-177
-288
-396
-483
-528
-510
-418
-311
-190
-103
-42
-9
11
29
31
34
33
40
43
48
44
42
32
49
40
40
30
40
38
32
37
36
23
29
33
33
15
15
21
18
20
8
8
7
11
7
2
-5
-4
3
-15
-10
-9
-3
-8
-18
-20
-23
-21
-19
-13
-28
-24
-23
-17
-29
-34
-42
-34
-23
-32
-27
-26
-13
-18
-17
-23
-12
-9
6
0
-6
-18
-4
5
0
-9
-17
-13
-6
-15
-20
-20
-6
0
9
-6
6
6
-8
-14
-22
-22
-16
-26
-14
-23
-11
-11
8
4
-7
7
17
23
27
25
29
36
42
32
32
34
51
48
52
49
50
53
65
56
49
60
63
63
56
55
46
54
49
47
43
47
56
47
46
36
43
42
58
41
36
41
31
38
40
39
45
42
41
25
19
24
25
33
20
24
16
19
16
7
11
19
35
26
27
17
11
21
11
9
6
0
10
7
-9
-17
-14
-5
2
2
-3
-12
-14
-13
-29
-13
1
-6
6
4
-5
2
-12
-25
-37
-48
-55
-63
-55
-50
-59
-45
-34
-26
-30
-31
-11
-22
-39
-55
-54
-40
-27
-35
-28
-38
-31
-30
-22
-16
12
12
4
-20
-75
-139
-222
-326
-451
-530
-566
-526
-426
-326
-219
-121
-53
-19
-8
2
5
11
18
19
4
4
7
8
-2
-1
-11
-6
12
12
3
-13
-7
-8
-25
-27
-26
-23
-18
-21
-29
-33
-23
-13
-18
-35
-37
-45
-37
-48
-59
-55
-53
-58
-53
-61
-73
-79
-71
-61
-57
-51
-49
-44
-43
-54
-65
-56
-47
-56
-73
-72
-87
-84
-78
-61
-50
-48
-45
-62
-54
-51
-52
-51
-57
-51
-48
-52
-34
-44
-50
-52
-48
-28
-31
-37
-46
-52
-47
-48
-46
-46
-33
-37
-28
-37
-41
-47
-44
-51
-70
-75
-56
-53
-53
-51
-54
-38
-38
-32
-39
-37
-44
-45
-32
-45
-33
-34
-37
-38
-46
-53
-34
-26
-32
-45
-27
-21
-23
-33
-35
-23
-12
-18
-17
-28
-30
-32
-21
-35
-33
-44
-40
-33
-33
-29
-9
-2
-8
-9
-8
-19
-12
-14
-18
-18
-13
-19
-17
-36
-37
-24
-13
-4
-9
-17
-14
-13
-23
-16
-22
-18
-21
-18
-29
-23
-19
-5
-12
-17
-22
-25
-30
-25
-24
-19
-17
2
-15
-20
-39
-40
-31
-27
-34
-36
-34
-39
-26
-8
-5
-10
1
-2
-7
-18
-17
-10
2
7
15
5
13
8
16
18
33
46
61
44
15
-31
-105
-188
-296
-394
-465
-466
-398
-303
-201
-115
-51
17
46
42
46
50
70
84
59
49
55
74
75
68
45
52
68
78
64
35
27
53
62
49
30
35
50
59
42
14
22
41
44
28
2
-9
6
13
-2
-24
-17
11
25
-3
-31
-18
6
13
-18
-35
-33
-5
17
-21
-38
-36
7
17
-15
-43
-37
-4
16
-7
-28
-11
24
25
1
-24
-15
26
40
20
6
22
51
49
30
-3
7
37
37
9
-16
-8
24
38
12
-6
1
26
23
10
-19
-2
22
43
9
-19
-17
17
15
-9
-30
-23
21
21
-9
-28
-16
16
24
5
-16
-13
24
21
-8
-37
-29
16
28
11
-29
-19
4
14
0
-24
-18
-10
-3
-16
-3
1
9
1
2
-8
2
-5
-5
-9
-12
-20
-22
-21
-23
-10
-11
-4
-4
-5
-18
-12
-12
-6
-13
-17
-25
-11
-22
-25
-25
-22
-14
-9
-18
-20
-24
-25
-20
-34
-35
-42
-37
-42
-38
-39
-24
-23
-25
-15
-12
-14
-14
-7
-10
-13
-4
-3
1
-6
-14
-10
-7
-12
-3
11
44
57
36
-3
-68
-133
-224
-342
-451
-512
-519
-430
-339
-223
-137
-53
-5
22
33
40
47
57
54
56
48
59
64
55
53
46
48
50
43
40
44
40
39
27
22
22
23
25
35
27
25
24
19
23
6
13
14
17
12
4
-9
0
0
-5
-15
-19
-9
-11
-2
-19
-16
-15
-7
-16
-18
-26
-22
-25
-18
-14
-27
-21
-9
-15
-17
-22
-21
-8
-8
-8
-7
5
10
24
17
-5
14
21
25
16
-9
-1
12
28
7
-15
-7
18
14
-6
-14
-15
5
21
5
-8
1
24
22
-2
-26
-19
10
9
-19
-46
-44
-29
-28
-58
-81
-80
-58
-60
-76
-81
-73
-36
-38
-61
-87
-77
-60
-54
-61
-81
-80
-43
-44
-66
-75
-72
-35
-29
-49
-61
-58
-39
-26
-49
-59
-60
-32
-24
-40
-65
-47
-20
-13
-40
-51
-46
-12
-17
-36
-56
-52
-34
-10
-43
-56
-46
-21
-4
-29
-59
-42
-12
-14
-45
-60
-45
-20
-12
-34
-53
-46
-23
-14
-39
-64
-53
-32
-15
-51
-64
-65
-38
-36
-68
-80
-75
-42
-25
-49
-69
-39
-13
-3
-31
-53
-48
-14
-8
-25
-54
-38
-9
-1
-21
-24
0
35
56
37
-9
-48
-97
-185
-304
-435
-518
-525
-488
-419
-326
-208
-96
-29
-16
-8
7
54
61
44
25
31
60
57
37
12
29
68
79
47
19
31
66
62
43
18
23
47
50
30
-4
10
32
41
12
-13
6
24
29
-9
-28
-21
11
10
-18
-37
-25
8
20
-9
-23
-23
16
8
-12
-37
-32
12
5
-20
-35
-27
-1
5
-21
-42
-27
-3
4
-17
-24
-17
13
28
2
-13
1
36
38
20
-9
13
35
33
9
-7
2
33
29
10
-25
-4
23
32
0
-24
4
21
24
8
-12
-8
23
20
-4
-20
-9
17
19
-5
-30
-17
12
20
-3
-23
-11
23
15
-6
-22
-4
18
18
-15
-20
-9
20
15
-7
-16
-7
15
13
-11
-39
-26
2
2
-4
-32
-27
-27
-18
-18
-18
-4
4
-9
-19
-24
-17
-15
-12
-24
-31
-23
-21
-19
-19
-21
-15
-13
-24
-21
-26
-21
-8
-17
-20
-24
-25
-16
-17
-20
-12
-8
-10
-8
-16
-24
-28
-15
-23
-20
-31
-23
-19
-16
-28
-30
-16
-21
-29
-29
-33
-41
-30
-43
-50
-65
-55
-56
-47
-53
-40
-40
-29
-31
-28
-32
-26
-18
-24
-25
-23
-12
-6
0
-14
-19
-4
5
18
27
25
0
-27
-84
-174
-280
-374
-470
-520
-501
-414
-309
-184
-92
-27
18
40
64
72
58
62
64
74
80
69
71
66
77
60
49
37
24
13
13
-1
-7
-16
-8
-9
-23
-24
-21
-12
-19
-28
-28
-25
-16
-22
-29
-32
-28
-27
-31
-37
-37
-38
-34
-32
-36
-40
-35
-36
-32
-40
-38
-37
-34
-34
-37
-37
-35
-23
-28
-37
-33
-33
-17
-19
-37
-39
-17
3
8
-20
-34
-20
10
12
-21
-16
3
17
24
0
-3
13
40
37
24
10
34
43
48
21
4
22
49
36
9
-4
19
26
31
2
-8
7
40
33
6
-5
14
40
39
19
-3
16
47
41
11
-5
29
52
39
16
4
22
43
42
13
-2
19
47
41
3
-5
24
53
43
4
-2
16
37
31
-8
-18
15
39
24
0
-13
18
45
33
-6
-19
8
35
21
-6
-15
14
32
21
-8
-26
4
32
17
-12
-22
-10
15
9
-15
-21
-5
19
16
-11
-27
-9
20
9
-19
-33
-11
19
11
-22
-53
-33
-13
-14
-35
-46
-25
4
4
-15
-30
-7
26
16
-10
-31
-17
3
2
-26
-48
-28
11
3
-13
-2
34
66
35
-40
-119
-169
-246
-350
-474
-539
-498
-390
-282
-202
-129
-51
15
32
12
5
32
59
59
23
11
30
59
42
16
10
25
59
48
9
-9
18
34
31
6
-14
9
24
21
-18
-20
-6
11
-3
-39
-37
-18
5
-4
-44
-56
-29
-9
-27
-59
-60
-40
-8
-34
-59
-64
-34
-21
-22
-52
-60
-29
-15
-22
-44
-50
-29
2
-14
-40
-43
-20
2
2
-25
-21
-3
26
17
-8
-11
11
32
28
-2
-5
17
35
26
-11
-21
11
32
23
-17
-19
15
28
24
-11
-14
11
32
23
-16
-24
12
27
13
-24
-27
-3
26
14
-21
-25
-3
24
10
-29
-25
4
19
10
-26
-33
-4
13
0
-24
-30
3
14
0
-30
-35
-4
18
7
-24
-37
-3
17
-9
-29
-33
-8
14
-6
-34
-35
-10
18
-5
-32
-44
-17
8
-14
-45
-43
-18
0
-9
-41
-39
-18
3
-8
-42
-44
-18
-3
-12
-42
-41
-20
-1
-15
-45
-51
-15
-1
-6
-46
-48
-16
-9
-9
-40
-43
-27
-5
-32
-66
-72
-45
-14
-28
-59
-46
-12
9
-19
-36
-45
-17
11
-11
-46
-47
-8
1
-26
-43
-40
-5
31
33
10
-5
-5
-33
-136
-262
-363
-438
-497
-548
-512
-407
-260
-138
-79
-61
-12
15
50
32
18
29
60
68
40
21
22
46
65
36
8
16
44
48
28
-4
4
30
48
25
-9
-5
27
29
10
-25
-24
10
18
-10
-33
-24
7
16
-7
-33
-26
-4
7
-15
-51
-42
-12
3
-19
-50
-40
-14
-2
-23
-55
-43
-18
-2
-29
-44
-46
-15
-5
-21
-34
-24
7
16
-9
-30
-23
16
26
7
-22
-13
13
30
6
-24
-12
16
29
0
-21
-17
19
22
-3
-29
-16
12
29
4
-27
-23
2
11
-11
-43
-36
2
9
-13
-37
-28
5
3
-19
-37
-29
3
15
-19
-37
-38
-3
3
-20
-55
-36
-10
9
-24
-41
-37
-9
10
-28
-48
-47
-22
1
-27
-53
-40
-21
-2
-32
-51
-44
-27
-4
-41
-63
-61
-14
-17
-39
-58
-56
-34
-14
-35
-59
-49
-16
-5
-30
-68
-60
-17
-11
-30
-61
-51
-22
-15
-34
-65
-45
-23
-24
-46
-67
-47
-13
-5
-36
-62
-48
-14
-16
-40
-65
-62
-32
-36
-71
-95
-85
-47
-24
-56
-74
-57
-25
-8
-40
-60
-45
-7
-15
-33
-60
-37
-11
-4
-32
-60
-31
23
39
13
-29
-44
-81
-144
-273
-401
-482
-512
-518
-470
-381
-250
-125
-53
-26
-38
2
43
50
25
8
26
56
58
29
9
23
55
51
31
0
20
43
47
14
-9
6
32
41
8
-21
-7
24
28
-4
-20
-13
25
20
-2
-38
-17
16
9
-16
-43
-33
-1
3
-36
-56
-46
-21
-11
-48
-64
-40
-8
-9
-39
-60
-41
-8
-5
-31
-49
-33
4
-3
-33
-44
-27
3
9
-21
-36
-22
9
17
-17
-33
-28
8
14
-31
-38
-19
1
5
-20
-50
-31
-1
0
-23
-43
-28
9
13
-27
-45
-26
1
8
-31
-48
-22
8
7
-14
-31
-13
8
10
-15
-38
-25
15
9
-11
-29
-13
18
25
-13
-27
-16
19
24
-14
-25
-10
19
16
-8
-29
-13
20
23
-7
-36
-17
22
12
-19
-31
-10
12
27
-11
-32
-15
17
7
-29
-38
-19
9
16
-12
-34
-17
14
14
-15
-35
-14
15
26
-11
-28
-10
23
19
-14
-33
-14
27
13
-9
-38
-10
19
16
-13
-27
-14
19
17
-13
-41
-12
20
8
-21
-39
-18
3
-2
-19
-37
-17
20
23
-1
-8
16
36
40
4
-9
9
49
51
16
2
14
51
46
23
27
65
108
92
42
-23
-81
-134
-231
-376
-466
-487
-424
-327
-251
-161
-63
29
60
53
40
68
99
96
67
57
80
100
94
73
48
63
89
88
53
36
50
75
76
37
16
44
64
63
28
3
21
45
41
15
1
11
45
39
4
-6
8
35
22
-13
-22
-11
13
16
-22
-41
-21
12
8
-23
-33
-31
8
-3
-33
-46
-22
2
9
-21
-43
-15
16
11
-16
-34
-6
21
20
-1
-19
-6
32
27
4
-20
10
29
26
-8
-23
3
33
37
-2
-13
4
28
28
1
-21
-8
32
23
-4
-24
-13
24
24
-6
-25
-12
18
13
-11
-31
-15
10
20
-12
-34
-15
10
13
-23
-43
-20
11
4
-21
-46
-25
5
3
-31
-43
-25
2
2
-22
-46
-35
-5
-17
-33
-53
-32
-3
5
-28
-39
-23
1
-1
-30
-44
-36
-10
-14
-34
-52
-33
-7
-7
-37
-66
-47
-15
-13
-50
-67
-49
-15
-19
-55
-64
-49
-29
-26
-54
-69
-50
-22
-25
-55
-80
-66
-39
-43
-77
-94
-63
-31
-30
-58
-65
-43
-24
-27
-51
-67
-52
-15
-10
-43
-64
-38
-17
-10
-39
-30
6
50
35
-28
-100
-152
-215
-324
-452
-544
-537
-449
-339
-262
-176
-92
0
25
11
1
11
38
41
13
-7
18
47
50
17
5
18
42
42
11
-11
5
38
32
1
-12
-3
34
26
-6
-22
-7
20
21
-13
-26
-15
17
-2
-21
-37
-22
3
4
-33
-48
-31
-13
-16
-37
-59
-34
-4
-9
-39
-58
-37
-16
-15
-43
-53
-39
-4
-11
-45
-55
-31
6
13
-27
-33
-8
24
24
-9
-26
-7
32
27
-6
-12
8
27
25
-8
-24
0
18
18
-21
-39
-12
16
8
-19
-41
-19
11
16
-24
-32
-18
8
16
-25
-30
-14
16
11
-23
-41
-16
20
15
-18
-29
-9
23
19
-10
-26
-14
25
21
-18
-38
-8
15
18
-20
-25
-9
19
16
-15
-28
-14
14
6
-23
-42
-11
16
6
-22
-36
-7
13
18
-19
-33
-11
12
12
-19
-39
-23
14
10
-32
-32
-20
12
7
-27
-33
-21
11
3
-28
-41
-30
-6
2
-33
-46
-24
11
-1
-21
-35
-16
4
4
-32
-44
-26
2
-11
-42
-63
-52
-28
-26
-54
-61
-28
-9
-12
-26
-44
-32
3
-5
-23
-43
-21
4
0
-21
-33
-11
13
12
6
6
28
54
5
-76
-170
-261
-347
-448
-531
-559
-474
-335
-225
-151
-84
-25
36
39
16
2
27
55
54
34
27
47
61
61
35
15
32
59
47
22
2
28
47
46
19
4
24
37
32
5
-10
4
28
24
-6
-13
8
27
11
-14
-24
-16
3
4
-21
-30
-17
8
1
-23
-41
-21
4
-3
-30
-46
-27
8
-10
-32
-40
-14
1
-10
-27
-35
-14
13
7
-16
-29
-1
21
24
-4
-7
11
33
29
4
-4
8
34
36
13
-2
15
29
24
-7
-4
15
30
20
-7
-12
10
36
29
-7
-8
11
28
21
-5
-21
2
24
16
-13
-19
-2
19
19
-9
-28
2
19
25
-14
-19
8
24
17
-16
-21
-3
24
7
-17
-26
-15
16
4
-25
-27
-4
20
16
-21
-36
-8
9
4
-28
-35
-16
2
6
-28
-36
-16
3
5
-24
-40
-6
8
3
-20
-35
-17
14
-9
-32
-46
-20
-5
-3
-27
-44
-12
3
1
-32
-46
-18
5
-13
-31
-50
-18
-8
-9
-40
-46
-20
-6
-3
-42
-49
-32
-15
-37
-77
-85
-55
-40
-46
-69
-77
-62
-17
-29
-56
-59
-32
2
-17
-38
-52
-21
-4
-6
-40
-53
-29
5
-3
-21
-11
25
50
21
-55
-129
-185
-266
-391
-512
-584
-539
-424
-312
-228
-143
-59
1
15
0
-1
32
59
52
19
17
42
56
56
21
12
32
48
40
12
9
23
50
43
11
1
17
37
26
-11
-16
2
19
8
-17
-26
-12
10
1
-28
-37
-15
13
8
-22
-41
-18
7
-8
-36
-50
-25
4
-10
-41
-55
-33
-10
-13
-45
-56
-42
-13
-11
-38
-46
-22
4
-12
-30
-33
-18
15
7
-17
-28
-2
21
17
-13
-24
2
22
12
-11
-29
4
19
15
-20
-25
-5
15
4
-24
-20
0
28
14
-9
-22
3
19
12
-22
-28
-8
16
17
-22
-26
-7
17
12
-18
-33
-8
9
4
-25
-28
-7
18
2
-24
-34
-6
19
6
-35
-32
-9
12
4
-24
-36
-14
16
-3
-24
-40
-11
10
-2
-29
-33
-13
10
-5
-37
-42
-13
6
8
-26
-31
-18
1
7
-31
-35
-7
12
3
-32
-42
-15
3
-14
-36
-54
-32
-4
-20
-45
-60
-28
-5
-22
-50
-49
-31
-15
-16
-49
-50
-32
-1
-18
-44
-61
-46
-24
-34
-60
-72
-52
-32
-19
-49
-54
-26
8
-10
-31
-41
-10
16
-1
-34
-35
-15
9
-5
-36
-38
-2
28
34
11
-4
-6
-39
-118
-235
-349
-423
-471
-487
-469
-374
-232
-123
-63
-40
-21
31
56
43
22
19
34
56
42
16
15
32
53
50
20
17
32
51
39
8
-5
26
52
36
-1
-7
15
35
23
-9
-16
-5
10
13
-17
-29
-9
16
-6
-26
-48
-26
1
-13
-32
-41
-17
-7
-17
-37
-50
-19
-2
-14
-36
-49
-25
4
-15
-46
-51
-10
6
-6
-24
-24
1
21
14
-5
-12
8
41
27
9
-9
23
39
41
9
-2
24
56
38
8
-3
16
41
33
5
-10
14
32
21
-8
-20
14
33
26
-6
-22
11
21
11
-25
-21
4
23
9
-21
-21
3
24
7
-23
-24
2
21
12
-24
-24
2
16
8
-13
-31
-8
13
11
-19
-27
2
25
5
-22
-31
-5
14
4
-24
-35
-9
14
3
-16
-27
-4
14
8
-22
-29
-4
18
-4
-31
-43
-20
10
-10
-35
-38
-26
-4
-17
-33
-45
-16
11
-7
-27
-45
-13
9
-2
-45
-48
-36
-17
-21
-57
-69
-47
-27
-34
-58
-62
-33
-6
-19
-42
-46
-12
10
-9
-41
-45
-22
12
-6
-32
-34
-12
10
12
-7
8
42
58
23
-61
-150
-208
-300
-420
-529
-550
-475
-351
-255
-174
-102
-15
33
31
14
17
40
71
59
22
25
47
60
60
22
24
38
61
53
11
8
23
41
33
3
0
26
43
19
-7
-13
6
26
14
-10
-24
-1
20
20
-19
-25
-3
18
-1
-29
-45
-17
13
-2
-29
-41
-15
9
-16
-44
-55
-22
4
-11
-46
-54
-35
-5
-24
-49
-45
-11
11
9
-25
-27
0
18
5
-12
-12
13
25
19
1
-12
18
30
15
-10
-12
11
33
6
-23
-33
-7
20
17
-17
-19
10
30
11
-15
-25
-3
23
11
-15
-18
0
16
6
-23
-36
-13
16
0
-23
-32
-12
14
-3
-20
-35
-11
16
8
-27
-28
-10
17
-1
-23
-29
-15
4
-9
-38
-33
-12
16
-3
-33
-35
-19
11
-7
-26
-41
-16
8
-9
-34
-34
-6
13
2
-27
-39
-20
0
-19
-41
-55
-32
-14
-25
-50
-46
-27
5
-6
-42
-38
-25
-9
-22
-52
-48
-25
-2
-10
-40
-45
-21
-2
-17
-39
-43
-23
1
-23
-49
-51
-29
-12
-31
-63
-79
-57
-33
-36
-59
-51
-24
5
-10
-45
-36
-18
5
-11
-31
-42
-22
-4
-21
-49
-40
-15
31
36
14
-6
-11
-35
-126
-236
-344
-437
-498
-535
-515
-425
-291
-154
-84
-49
-24
18
58
46
26
25
46
72
63
35
27
55
76
58
31
27
51
59
56
20
15
32
47
34
6
-1
32
52
31
1
-13
11
30
19
-17
-28
2
25
3
-29
-30
-7
2
-11
-41
-50
-24
-6
-11
-47
-55
-32
-20
-33
-56
-54
-36
-13
-30
-60
-53
-26
-5
-8
-34
-45
-19
4
2
-22
-26
-4
28
18
-16
-25
8
25
14
-9
-15
12
33
19
-17
-25
7
25
11
-16
-28
-2
17
11
-24
-35
-4
19
6
-25
-21
0
16
4
-23
-22
-3
19
-4
-28
-29
-2
20
2
-26
-28
5
21
4
-25
-33
-11
9
-5
-36
-39
-19
8
-8
-38
-42
-18
2
-5
-50
-46
-26
-6
-22
-45
-42
-14
3
-21
-40
-39
-14
-9
-23
-42
-46
-10
5
-33
-61
-50
-24
-7
-22
-41
-45
-13
0
-17
-39
-44
-10
-1
-8
-39
-44
-12
-3
-19
-46
-39
-13
-9
-28
-42
-36
-22
-4
-25
-43
-33
-19
1
-15
-45
-40
-22
-16
-34
-61
-65
-38
-25
-40
-54
-53
-17
-6
-14
-37
-32
1
16
-9
-37
-34
-8
3
-13
-31
-33
10
26
39
16
24
21
-11
-85
-198
-293
-376
-439
-501
-496
-406
-262
-148
-86
-48
-14
29
52
40
13
22
62
72
53
28
31
51
61
45
30
23
39
67
41
9
7
39
34
18
-8
-5
23
47
22
-10
-11
14
29
14
-12
-8
20
31
12
-24
-26
-3
8
-6
-32
-39
-10
4
-8
-42
-36
-10
6
-18
-35
-38
-3
9
-4
-34
-35
-2
12
-5
-33
-18
3
27
11
-19
-10
22
35
10
-11
0
28
39
20
0
14
40
39
12
-12
-2
19
34
20
-6
-4
19
35
15
-15
-9
22
27
7
-13
-5
22
33
9
-20
-8
17
25
5
-13
-7
16
23
-2
-17
-21
23
24
11
-13
-17
21
25
-4
-30
-11
22
34
3
-18
-15
11
26
6
-30
-16
3
13
-10
-30
-17
9
20
-19
-36
-32
2
9
-9
-33
-27
5
11
-19
-28
-21
4
7
-14
-28
-27
12
14
-12
-34
-17
4
5
-12
-39
-28
2
4
-20
-40
-36
-3
0
-33
-55
-49
-24
-25
-55
-69
-52
-17
-6
-29
-41
-23
1
3
-13
-36
-42
-7
6
-19
-40
-32
-2
4
-13
-20
3
49
62
30
-34
-82
-129
-217
-363
-470
-535
-507
-423
-335
-241
-137
-28
19
15
15
32
56
61
45
25
39
60
66
35
21
27
51
56
31
7
13
47
53
28
-3
9
35
39
23
-11
4
31
33
7
-19
-5
15
20
-12
-32
-26
-7
9
-23
-49
-36
-15
-6
-26
-57
-49
-10
-5
-41
-61
-45
-23
-18
-34
-60
-53
-18
-16
-37
-53
-39
-13
2
-23
-39
-31
2
7
-7
-20
-13
21
24
15
-16
1
28
33
12
-16
-5
24
33
-5
-14
2
21
26
-5
-19
-8
22
22
-8
-22
-13
13
11
-16
-31
-16
8
22
-8
-34
-11
10
24
-13
-35
-18
9
9
-12
-30
-21
-1
6
-16
-36
-23
2
6
-18
-40
-25
-2
5
-28
-43
-24
-6
4
-29
-48
-30
-6
3
-29
-54
-31
-6
-4
-28
-43
-32
-2
3
-35
-48
-37
-13
-3
-32
-49
-32
-13
-4
-31
-56
-37
-16
-9
-36
-51
-42
-6
-5
-28
-51
-29
-4
-6
-37
-58
-43
-21
-19
-45
-76
-54
-39
-42
-69
-78
-75
-38
-35
-51
-57
-46
-8
-6
-41
-55
-39
-8
-15
-35
-51
-43
-8
-8
-27
-29
12
40
48
0
-70
-118
-175
-269
-410
-517
-553
-506
-416
-326
-227
-138
-48
3
-7
-11
4
39
41
29
4
27
50
55
20
6
21
52
51
16
2
2
28
38
2
-19
2
30
23
-3
-28
-20
7
7
-19
-35
-16
-3
2
-14
-38
-26
-4
-9
-39
-49
-36
-23
-12
-43
-60
-54
-28
-19
-47
-61
-45
-17
-13
-46
-68
-55
-22
-22
-41
-45
-32
-2
-11
-31
-49
-24
11
8
-18
-28
-8
17
16
-6
-25
1
24
29
-6
-16
-3
21
16
-7
-25
1
28
30
0
-23
-12
24
19
-7
-22
2
21
15
-16
-33
-10
20
21
-11
-23
0
22
18
-8
-25
-4
30
32
6
-14
2
24
24
0
-19
-12
23
27
-6
-19
-11
20
18
-5
-18
-5
22
14
-19
-23
-9
14
19
-17
-29
-15
22
15
-16
-26
-16
9
7
-19
-27
-4
15
12
-21
-34
-15
7
17
-19
-34
-8
10
21
-19
-40
-18
8
0
-37
-55
-33
-17
-16
-44
-63
-52
-27
-25
-45
-44
-17
0
-1
-19
-38
-23
6
4
-31
-40
-18
5
4
-25
-41
-5
38
58
37
16
-6
-28
-102
-229
-346
-437
-473
-493
-457
-364
-236
-123
-53
-29
-11
27
59
49
29
19
37
61
54
24
18
43
54
46
11
4
27
43
29
2
-15
11
34
24
-2
-10
5
21
15
-8
-22
-3
17
5
-22
-33
-15
2
1
-35
-43
-22
1
-19
-51
-57
-30
-11
-11
-43
-58
-30
-16
-27
-59
-66
-48
-16
-29
-52
-57
-43
-7
-11
-45
-46
-17
13
4
-22
-23
12
28
23
1
-16
12
39
37
4
-16
12
31
25
-6
-17
4
32
30
-2
-7
8
26
17
-13
-34
-5
15
14
-19
-30
-9
21
18
-21
-33
-5
23
13
-8
-20
5
30
14
-9
-25
-3
17
22
-11
-19
2
15
11
-10
-23
2
24
15
-23
-39
-19
12
1
-18
-31
-11
10
4
-22
-30
-15
16
12
-19
-24
-9
12
5
-22
-32
-12
21
14
-16
-32
-12
8
1
-30
-37
-12
7
1
-30
-27
-9
24
1
-25
-36
-5
17
3
-22
-36
-22
9
-6
-38
-56
-43
-23
-29
-65
-62
-38
-11
-14
-34
-45
-18
-2
3
-30
-37
-11
13
-3
-26
-39
-20
9
3
-18
-11
18
60
45
-9
-58
-98
-155
-267
-395
-499
-534
-499
-415
-334
-229
-108
-25
10
-1
3
29
63
47
30
29
43
73
64
32
30
51
63
62
32
14
36
64
52
25
18
32
55
36
7
-9
13
38
32
-4
-21
0
17
9
-22
-43
-21
1
-7
-29
-41
-19
2
-9
-41
-56
-41
-8
-22
-37
-48
-31
-13
-23
-51
-64
-42
-17
-25
-49
-56
-36
-8
-5
-26
-32
-12
18
5
-14
-17
11
34
26
-4
-8
8
36
19
-5
-12
11
27
16
-12
-25
-5
23
13
-21
-22
-2
24
10
-28
-36
-14
16
2
-22
-36
-10
12
1
-25
-31
-9
17
3
-27
-36
-8
18
1
-16
-35
-8
12
6
-26
-37
-12
4
0
-27
-30
0
12
9
-25
-34
-8
14
6
-21
-34
-16
15
2
-26
-29
-10
1
2
-22
-39
-19
8
-4
-30
-41
-20
3
-10
-27
-30
-18
14
-10
-34
-36
-24
1
-10
-38
-42
-19
-4
-10
-45
-55
-21
-8
-12
-46
-55
-24
2
-13
-47
-59
-28
-4
-15
-47
-66
-38
-32
-43
-67
-79
-47
-34
-27
-54
-60
-32
-16
-25
-47
-49
-21
7
-12
-43
-52
-29
-5
-8
-34
-39
0
43
49
18
-12
-47
-93
-174
-306
-417
-473
-498
-477
-417
-311
-194
-84
-26
-18
4
31
59
58
22
23
44
67
63
36
28
43
63
52
32
17
37
61
47
18
3
25
49
39
7
-9
12
35
21
-12
-22
9
24
15
-19
-22
-9
2
-3
-38
-37
-17
-1
-9
-34
-42
-23
-5
-23
-48
-58
-40
-12
-19
-48
-51
-31
-10
-18
-47
-44
-12
10
-9
-28
-32
5
19
18
-3
-19
7
30
22
-9
-14
13
35
18
1
-9
15
25
13
-19
-17
-4
23
6
-27
-30
-13
12
-11
-36
-42
-18
5
-4
-41
-45
-24
1
-19
-45
-54
-25
1
-17
-45
-49
-27
2
-16
-45
-46
-19
6
-14
-29
-41
-13
15
3
-21
-26
-13
8
-1
-29
-34
-13
6
1
-27
-30
-2
18
8
-31
-37
-9
8
2
-29
-40
-15
5
-8
-37
-42
-12
5
-9
-35
-31
-18
-3
-11
-26
-37
-9
18
1
-31
-29
-9
14
1
-16
-26
-7
22
8
-23
-35
-12
2
-21
-49
-56
-35
-16
-33
-52
-51
-16
3
-1
-29
-24
-7
20
9
-12
-19
-2
20
7
-18
-26
2
23
26
12
24
60
49
-7
-90
-187
-271
-355
-459
-522
-509
-402
-272
-174
-116
-52
16
52
53
24
28
58
73
68
46
41
57
87
71
43
37
65
71
57
23
24
36
48
36
11
12
33
47
28
-5
-7
21
37
24
-17
-20
-1
15
-5
-30
-29
-2
14
-4
-31
-40
-19
-1
-19
-38
-50
-33
-16
-28
-60
-54
-39
-11
-17
-45
-54
-18
2
-15
-36
-37
-9
17
-2
-30
-21
13
30
20
1
-10
12
33
24
-5
-1
23
39
22
-3
-10
12
32
13
-8
-9
10
23
8
-12
-14
13
26
10
-15
-24
-1
19
3
-27
-27
-8
19
11
-20
-26
7
21
10
-22
-24
6
22
2
-23
-24
5
22
5
-20
-28
4
14
-5
-31
-31
-10
11
1
-31
-29
2
8
-5
-26
-31
3
13
-1
-22
-32
-9
8
-13
-39
-43
-18
-2
-20
-34
-42
-15
0
-19
-40
-39
-11
8
-13
-46
-47
-20
-5
-24
-54
-59
-28
-9
-32
-57
-61
-29
-13
-33
-62
-72
-36
-29
-35
-62
-67
-41
-17
-40
-68
-69
-42
-21
-44
-64
-67
-33
-18
-35
-61
-70
-50
-40
-56
-86
-100
-68
-53
-66
-82
-77
-47
-26
-33
-57
-61
-36
-11
-34
-48
-56
-28
-20
-32
-61
-69
-26
-12
-6
-16
0
14
4
-65
-156
-250
-336
-418
-511
-566
-518
-395
-268
-164
-116
-59
-4
36
30
14
19
43
59
43
26
33
60
76
56
24
28
51
68
42
11
12
39
49
34
10
7
32
43
26
6
-1
26
42
14
-10
-10
14
34
16
-16
-24
-1
16
-10
-32
-34
-6
11
-10
-37
-44
-14
9
-9
-35
-42
-10
10
-4
-37
-41
-13
1
-17
-43
-40
-7
11
8
-18
-17
19
38
21
-5
-5
25
41
25
1
-6
23
35
29
6
-5
21
38
21
-7
-11
12
33
23
-11
-7
17
25
7
-22
-13
8
37
14
-17
-14
8
21
6
-18
-12
17
29
13
-16
-12
20
34
14
-16
-11
16
25
19
-11
-15
4
17
14
-20
-18
11
36
11
-18
-14
14
28
17
-22
-20
7
22
10
-16
-20
6
20
12
-29
-26
-3
15
10
-20
-24
7
11
-5
-20
-27
-4
16
5
-35
-34
-5
6
-6
-36
-36
-4
8
2
-29
-22
3
21
-2
-16
-18
7
18
1
-29
-27
-10
15
4
-31
-24
-2
11
-9
-33
-25
-3
16
2
-39
-41
-19
-10
-25
-59
-53
-38
-14
-16
-46
-35
-16
3
-11
-39
-39
-11
2
-3
-28
-38
-13
10
-5
-26
-24
0
28
24
13
23
25
-6
-77
-186
-292
-372
-449
-519
-529
-445
-313
-197
-118
-84
-44
12
43
30
16
16
31
54
30
6
7
30
38
27
2
-9
13
29
14
-16
-19
3
19
-4
-30
-25
-14
2
-15
-41
-38
-16
2
-21
-53
-51
-27
-4
-21
-58
-63
-42
-27
-34
-64
-63
-33
-25
-41
-68
-67
-48
-23
-43
-69
-80
-52
-34
-52
-74
-66
-42
-25
-28
-56
-53
-28
-6
-16
-35
-36
-15
13
4
-21
-21
15
30
17
-13
-15
17
28
18
-16
-16
11
24
6
-15
-24
6
21
11
-10
-15
9
23
3
-24
-18
13
16
-1
-22
-28
0
17
2
-29
-26
4
19
3
-27
-27
-2
22
4
-26
-28
-3
10
6
-34
-32
3
21
4
-19
-15
0
24
11
-16
-18
3
13
-5
-20
-18
11
18
1
-15
-13
6
24
7
-16
-17
8
22
12
-21
-19
14
25
6
-23
-13
9
25
11
-18
-20
8
21
6
-14
-24
5
28
11
-8
-11
5
24
9
-14
-19
9
26
4
-25
-38
-7
0
-17
-50
-49
-32
2
-12
-36
-37
-7
11
-7
-25
-34
-7
22
-9
-35
-28
-2
6
-11
-27
-23
10
40
27
17
9
20
-25
-111
-222
-322
-407
-468
-529
-518
-422
-287
-153
-80
-50
-21
23
43
38
14
21
48
67
56
21
26
54
60
40
25
21
42
53
32
15
4
31
39
33
5
-7
32
36
16
-25
-25
6
16
1
-26
-29
-16
2
-13
-40
-38
-18
5
-22
-40
-46
-23
-11
-28
-63
-63
-32
-12
-22
-50
-55
-40
-16
-35
-59
-49
-24
-20
-24
-49
-44
-16
-3
-12
-31
-22
-1
25
6
-23
-14
7
24
12
-20
-20
4
19
1
-20
-18
10
26
12
-15
-10
9
16
-5
-20
-29
-4
14
-2
-20
-22
-3
13
-8
-29
-31
-3
8
-17
-37
-36
-1
16
-7
-31
-29
-2
7
-17
-40
-28
-5
13
-12
-28
-27
5
15
1
-24
-20
0
12
-2
-30
-24
0
13
-11
-38
-37
-11
12
-16
-43
-40
-8
0
-10
-37
-35
-9
4
-17
-43
-37
-15
8
-21
-47
-43
-14
-7
-16
-48
-39
-19
-11
-25
-57
-50
-22
-17
-37
-61
-47
-25
-14
-35
-44
-45
-26
-17
-26
-47
-52
-30
-10
-28
-60
-49
-19
-11
-29
-65
-65
-32
-22
-46
-81
-79
-63
-49
-63
-73
-67
-44
-20
-29
-54
-49
-29
-13
-35
-53
-48
-20
-7
-22
-57
-55
-17
-3
-9
-11
10
35
39
-18
-106
-168
-241
-333
-454
-543
-558
-479
-360
-266
-178
-99
-18
15
15
2
13
39
61
54
33
32
54
68
52
27
27
55
58
42
11
8
39
52
30
5
1
25
32
12
-14
-3
15
31
9
-27
-23
10
13
2
-34
-31
-10
9
-21
-41
-43
-16
1
-29
-48
-43
-21
-7
-25
-43
-43
-15
-6
-34
-43
-36
-7
0
-13
-41
-35
-4
11
-13
-24
-20
17
30
9
-17
-6
13
31
17
-11
2
24
32
7
-17
-13
11
24
2
-13
-8
15
32
11
-19
-6
16
28
11
-19
-2
22
21
5
-15
-11
13
23
1
-20
-18
16
27
6
-19
-10
19
21
2
-24
-10
15
22
0
-26
-23
5
18
1
-29
-13
22
25
7
-23
-9
17
23
8
-17
-17
13
25
14
-14
-9
6
23
3
-20
-18
-3
5
-7
-31
-22
11
21
-5
-29
-16
5
10
-13
-33
-21
0
13
-6
-22
-20
-9
6
-14
-26
-24
0
9
-7
-40
-34
0
5
-9
-38
-30
-10
-1
-18
-33
-35
-9
4
-12
-39
-35
-5
8
-17
-34
-37
-16
-20
-45
-72
-68
-41
-29
-50
-58
-53
-20
-23
-36
-51
-39
-14
1
-22
-45
-38
-12
5
-16
-35
-27
-9
21
19
11
23
17
-8
-95
-199
-295
-367
-449
-520
-530
-429
-294
-180
-117
-79
-31
21
39
32
6
16
45
60
35
15
16
52
47
24
2
4
28
33
24
-12
4
32
37
16
-16
-4
19
24
-6
-30
-19
6
7
-8
-40
-27
-3
0
-20
-42
-35
-13
1
-30
-57
-40
-23
-15
-27
-48
-38
-14
0
-28
-55
-42
-21
-11
-34
-56
-39
-13
-3
-29
-48
-40
-16
1
-17
-35
-25
7
20
-4
-20
-3
20
29
3
-11
1
22
27
7
-20
-4
18
17
-5
-25
-12
14
24
6
-18
-13
17
19
2
-14
-15
20
17
-6
-17
-16
12
13
-10
-22
-10
7
16
-4
-26
-10
17
28
-4
-17
-9
4
14
-9
-21
-16
5
15
-11
-21
-20
13
11
-13
-31
-19
13
23
-1
-28
-17
8
16
-11
-35
-23
11
14
-2
-31
-16
7
20
-7
-28
-13
16
17
-5
-30
-13
14
17
-11
-30
-21
8
12
-8
-30
-23
6
17
-5
-25
-11
14
11
-11
-36
-19
6
6
-18
-40
-31
-11
-3
-34
-58
-54
-19
-15
-37
-47
-34
4
-3
-15
-34
-23
9
16
-10
-40
-19
8
13
-3
-25
-17
18
39
24
24
38
45
18
-58
-164
-252
-337
-422
-502
-524
-452
-318
-194
-117
-59
-9
47
55
50
32
40
68
75
61
45
52
73
72
54
38
38
61
68
51
29
31
53
60
41
12
22
44
51
24
3
11
31
33
20
-2
-1
21
28
6
-23
-9
19
16
-9
-28
-17
8
10
-11
-30
-27
3
5
-24
-46
-29
-12
-9
-27
-51
-36
-13
1
-23
-39
-27
3
17
-4
-18
-2
26
26
5
-8
11
37
45
12
-6
7
40
36
24
-5
7
32
40
17
0
4
28
22
0
-17
-12
22
34
11
-11
1
13
26
11
-19
1
27
32
10
-10
-5
21
26
-8
-28
-17
10
15
-8
-29
-22
3
12
-9
-26
-16
8
24
-6
-27
-15
4
16
-13
-29
-18
9
8
-16
-30
-24
-2
10
-18
-40
-28
7
13
-13
-35
-29
-2
5
-22
-37
-26
8
8
-11
-45
-29
-5
7
-15
-39
-33
0
6
-21
-46
-30
-6
-7
-22
-47
-33
-2
2
-29
-43
-40
-8
-5
-30
-37
-27
0
1
-16
-48
-46
-16
-21
-48
-68
-76
-46
-34
-48
-66
-49
-18
-13
-20
-47
-40
-9
4
-24
-32
-30
1
-5
-23
-45
-24
5
22
19
10
21
22
-18
-122
-211
-298
-376
-469
-532
-521
-427
-285
-163
-97
-48
-4
37
51
37
23
32
63
70
47
32
37
58
65
41
16
26
45
49
23
8
11
44
46
21
-2
7
33
35
8
-15
1
27
27
0
-20
-17
17
13
-10
-24
-23
3
7
-22
-43
-43
-6
-6
-25
-52
-44
-15
-8
-34
-56
-47
-20
-29
-43
-65
-47
-18
-11
-35
-57
-36
-6
7
-17
-35
-22
4
11
-14
-27
-11
19
25
3
-21
-10
28
29
-4
-19
-12
15
12
-14
-37
-15
3
13
-7
-30
-8
10
13
-10
-26
-24
8
8
-19
-38
-17
9
8
-10
-35
-27
3
12
-16
-41
-20
6
4
-21
-39
-28
8
8
-16
-32
-24
8
-5
-25
-41
-31
-4
4
-21
-39
-34
-9
2
-22
-37
-31
-11
-11
-36
-52
-39
-23
-17
-41
-48
-37
-20
-9
-44
-48
-42
-25
-18
-43
-56
-50
-21
-19
-44
-57
-42
-17
-19
-35
-53
-47
-25
-16
-46
-64
-55
-28
-25
-41
-61
-48
-27
-26
-40
-57
-51
-27
-22
-53
-76
-75
-61
-54
-78
-101
-80
-45
-39
-57
-71
-65
-30
-20
-44
-64
-51
-26
-22
-49
-61
-50
-21
-21
-40
-48
-33
8
34
9
-15
-36
-66
-140
-254
-381
-471
-504
-505
-466
-355
-253
-128
-62
-31
-19
4
40
42
19
8
24
55
68
40
14
34
51
47
32
19
21
44
39
18
-11
2
27
30
3
-8
6
33
19
-7
-23
-13
11
20
-5
-23
-16
15
11
-13
-34
-23
-7
-3
-35
-48
-33
-15
-6
-34
-47
-39
-7
-12
-35
-49
-34
-15
-11
-36
-52
-34
-5
-3
-22
-36
-15
9
12
-12
-23
-4
25
33
8
-11
10
34
41
9
-8
7
32
44
22
10
13
44
32
7
-7
10
28
35
6
-17
11
25
26
14
-14
-6
25
24
-6
-16
-8
20
21
1
-13
-9
19
32
-7
-25
-14
16
16
1
-15
5
29
26
5
-14
7
24
23
0
-15
0
20
26
3
-12
-3
20
27
-5
-25
-13
17
11
-8
-23
-10
16
7
-13
-33
-17
-1
18
-10
-24
-15
12
12
-10
-32
-9
11
6
-19
-34
-21
4
4
-21
-29
-19
10
18
-11
-32
-16
7
12
-11
-29
-20
3
5
-19
-37
-33
-12
-19
-50
-67
-49
-25
-25
-40
-50
-31
-12
-1
-25
-37
-24
-3
1
-15
-38
-24
-5
3
-21
-29
-17
27
47
40
28
13
-12
-81
-183
-309
-399
-459
-503
-490
-409
-288
-162
-78
-38
-17
21
54
53
29
29
38
68
67
40
33
45
60
62
42
23
35
52
49
25
2
18
41
37
11
-6
7
37
36
8
-14
-2
15
12
-6
-31
-18
-1
2
-13
-32
-24
5
-8
-34
-46
-28
-5
-13
-29
-57
-41
-14
-11
-33
-49
-39
-24
-18
-41
-60
-42
-20
-3
-24
-46
-27
9
0
-13
-24
-11
22
17
-5
-24
-5
22
24
1
-17
3
22
29
5
-5
3
23
21
-8
-17
-6
14
15
-3
-22
-12
22
14
-8
-16
-7
13
23
-7
-22
-6
3
10
-17
-33
-17
3
3
-17
-30
-28
9
15
-10
-29
-12
5
14
-17
-31
-25
-2
7
-16
-36
-21
-2
-6
-31
-42
-30
-2
-2
-20
-41
-27
-4
1
-22
-37
-18
4
10
-22
-44
-23
0
3
-30
-40
-23
-6
-9
-28
-49
-39
-11
-4
-25
-39
-27
-9
0
-23
-43
-39
-7
-11
-32
-44
-36
-11
-9
-23
-45
-31
-5
-11
-36
-46
-36
-7
2
-24
-41
-28
1
-7
-20
-47
-37
-12
-12
-32
-46
-29
-5
-11
-45
-77
-67
-42
-49
-76
-84
-59
-32
-23
-37
-56
-32
-4
-6
-27
-37
-30
-11
-8
-26
-44
-26
-4
1
-20
-25
9
47
49
-4
-74
-121
-188
-293
-424
-522
-558
-507
-420
-322
-229
-125
-26
7
3
-4
11
44
56
33
22
40
51
56
30
7
25
46
48
20
11
25
49
43
21
4
10
29
21
-5
-21
-3
22
19
-8
-32
-22
7
2
-21
-31
-21
6
1
-31
-44
-28
-5
-12
-40
-44
-33
-11
-17
-43
-54
-39
-21
-18
-37
-66
-47
-27
-24
-38
-53
-35
-5
-3
-31
-40
-25
-1
13
-8
-23
2
24
28
-7
-12
5
24
18
-4
-20
1
20
19
0
-16
-4
18
22
-10
-27
2
19
18
-7
-25
-12
22
8
-15
-26
-12
10
7
-15
-30
-7
10
8
-14
-28
-9
11
19
-12
-30
-14
17
14
-20
-34
-13
20
17
-7
-24
-8
18
12
-11
-19
-9
19
12
-19
-28
-14
7
8
-16
-33
-18
5
5
-25
-35
-22
1
4
-20
-31
-27
2
9
-15
-37
-22
3
0
-24
-42
-25
2
-1
-24
-42
-23
-8
-7
-33
-43
-33
0
-11
-30
-33
-27
3
-13
-29
-47
-17
1
-3
-31
-36
-17
1
-7
-23
-41
-24
1
-5
-37
-48
-27
-6
-6
-32
-47
-26
-18
-12
-35
-49
-32
-9
-13
-46
-60
-44
-32
-42
-72
-78
-58
-35
-36
-48
-59
-42
-19
-17
-40
-41
-26
-7
-10
-35
-41
-24
2
-10
-21
-32
-3
30
35
25
-1
-21
-44
-133
-237
-362
-442
-490
-511
-474
-388
-260
-131
-55
-31
-17
21
47
43
30
15
36
62
60
39
27
41
60
56
29
16
28
57
46
21
9
17
39
41
7
-7
9
27
24
-4
-17
-3
16
23
-15
-21
-7
8
-1
-26
-40
-24
-4
-6
-31
-41
-34
-10
-12
-35
-47
-33
-13
-29
-50
-63
-37
-15
-24
-36
-46
-29
-3
-5
-30
-46
-16
-5
-1
-24
-39
-26
10
6
-18
-30
-9
11
13
-16
-23
-4
25
15
-14
-25
-13
7
5
-15
-28
-15
12
11
-12
-20
-9
20
7
-21
-19
-13
12
3
-9
-20
-10
9
13
-20
-27
-10
13
13
-12
-19
3
24
21
-6
-18
-10
16
17
-2
-18
-2
21
9
-17
-25
-9
8
16
-17
-30
-5
15
9
-20
-30
-5
17
16
-21
-33
-18
9
3
-12
-32
-8
11
12
-18
-22
-11
10
4
-16
-37
-16
11
9
-18
-25
-5
17
14
-17
-30
-13
9
10
-17
-29
-9
3
3
-23
-38
-16
6
2
-26
-50
-26
-3
-15
-43
-60
-50
-16
-15
-42
-40
-17
9
8
-22
-32
-19
3
7
-15
-27
-19
13
4
-21
-34
-2
25
41
44
25
8
-25
-96
-184
-292
-391
-489
-529
-498
-418
-302
-184
-97
-35
9
34
47
55
62
58
64
63
49
53
43
41
47
49
44
49
49
50
42
44
39
40
39
27
32
27
25
33
32
33
24
33
30
19
15
10
5
4
10
-6
-2
3
-5
-14
-21
-12
-12
-9
-15
-14
-14
-13
-10
-9
-14
-17
-15
-8
-5
-5
1
10
15
9
22
27
38
35
42
48
57
72
81
76
75
78
90
93
100
95
107
108
104
113
120
116
120
123
118
122
116
121
121
127
115
123
109
106
104
104
107
121
125
119
116
128
128
119
124
115
112
124
114
124
122
128
123
121
117
115
117
122
126
123
121
129
131
122
128
119
123
128
122
120
115
113
116
109
116
107
99
101
94
90
93
90
95
90
92
90
80
81
81
82
72
65
64
59
58
54
52
64
68
60
53
48
53
55
47
43
46
41
52
48
44
44
45
51
48
37
46
39
31
35
37
32
31
34
21
13
1
-4
-10
-12
-8
-4
1
8
10
-3
8
10
8
9
8
5
5
11
0
-9
-13
-17
-16
-12
2
20
29
27
5
-33
-107
-194
-290
-406
-510
-561
-547
-472
-364
-258
-163
-91
-60
-36
-21
-20
-17
-18
-5
-5
-6
-8
-14
-21
-24
-20
-21
-22
-25
-37
-38
-43
-36
-50
-43
-49
-57
-59
-69
-74
-70
-66
-68
-68
-73
-78
-79
-86
-86
-92
-87
-90
-101
-96
-101
-101
-110
-113
-115
-122
-119
-122
-123
-124
-122
-123
-126
-121
-122
-117
-128
-118
-126
-131
-131
-120
-125
-122
-119
-112
-111
-105
-109
-106
-109
-101
-100
-87
-90
-95
-96
-96
-78
-86
-91
-96
-94
-89
-90
-93
-91
-83
-82
-88
-90
-84
-95
-99
-102
-106
-91
-96
-92
-87
-89
-88
-90
-89
-87
-89
-89
-93
-90
-85
-103
-97
-99
-99
-104
-103
-96
-92
-99
-92
-93
-92
-88
-92
-92
-103
-92
-94
-96
-98
-102
-92
-98
-96
-95
-91
-97
-94
-88
-94
-87
-94
-82
-76
-87
-91
-85
-91
-93
-79
-80
-68
-65
-74
-71
-67
-75
-75
-69
-76
-77
-70
-69
-71
-68
-68
-69
-61
-63
-73
-67
-61
-69
-57
-64
-65
-57
-62
-57
-60
-69
-55
-65
-56
-63
-60
-48
-40
-53
-65
-67
-77
-81
-70
-76
-64
-71
-63
-51
-54
-52
-55
-49
-53
-42
-41
-45
-32
-41
-45
-46
-43
-37
-34
-33
-20
-5
14
-3
-33
-76
-151
-224
-323
-434
-516
-560
-529
-443
-333
-229
-128
-66
-29
-5
7
14
24
18
37
40
34
36
40
38
39
37
37
24
20
28
21
20
10
13
10
7
9
16
8
8
3
6
4
-1
-1
-3
-6
-11
-15
-8
-16
-13
-18
-17
-33
-27
-27
-23
-30
-25
-19
-22
-35
-45
-47
-45
-42
-35
-41
-41
-37
-39
-38
-32
-41
-32
-32
-23
-19
-25
-15
-25
-16
-9
-12
1
0
-5
-8
-4
-2
0
10
11
2
5
-5
-9
-12
-8
-4
2
-3
-15
-19
-11
-12
-8
-12
-19
-17
-11
-15
-25
-20
-13
-24
-19
-22
-21
-14
-17
-18
-28
-18
-22
-24
-21
-16
-21
-15
-22
-11
-25
-22
-26
-19
-31
-28
-23
-9
-13
-6
-10
-21
-24
-17
-26
-32
-27
-34
-20
-16
-20
-30
-27
-27
-26
-27
-25
-25
-25
-26
-24
-36
-37
-20
-24
-31
-23
-20
-29
-24
-26
-24
-32
-31
-28
-35
-35
-34
-31
-33
-42
-38
-48
-42
-51
-55
-50
-55
-42
-29
-21
-21
-8
-14
-17
-18
-12
-12
-4
-6
-13
-11
-12
-6
-8
-4
0
11
15
36
43
30
4
-47
-125
-210
-320
-418
-489
-511
-454
-355
-241
-143
-63
-15
24
37
41
34
33
34
37
41
48
45
48
44
52
40
50
52
50
45
44
43
35
38
35
35
38
24
23
19
31
32
23
30
17
20
17
12
8
4
3
-6
4
-2
3
-10
-7
-22
-8
-17
-13
-5
-18
-21
-25
-14
-25
-21
-26
-27
-21
-23
-23
-10
-13
-11
-15
-3
-6
0
3
11
15
17
24
33
32
34
42
40
36
41
37
43
42
49
37
43
46
47
47
43
42
49
37
46
36
36
30
44
37
32
28
19
24
20
30
23
30
28
23
24
17
19
22
13
19
14
14
22
23
20
16
26
22
26
11
18
26
14
19
13
14
15
18
25
16
24
21
19
8
9
16
9
11
10
17
7
5
6
1
-2
-4
-4
-2
0
5
9
-1
8
-1
2
-3
-4
-9
-3
-6
-11
-8
-10
-12
-20
-28
-32
-35
-31
-23
-18
-15
-14
-10
-9
-5
-5
-9
-11
-17
-11
-10
-12
-13
-16
-12
3
13
25
38
41
21
-29
-84
-171
-272
-377
-468
-505
-502
-417
-309
-195
-97
-36
10
31
46
56
49
55
54
57
71
63
70
67
60
59
62
61
69
66
53
48
50
56
59
58
57
47
45
47
55
47
42
49
41
40
47
45
45
51
46
44
46
57
71
86
100
114
126
140
154
152
161
174
199
203
218
228
249
278
297
322
348
367
401
425
454
472
483
480
483
474
464
462
453
441
426
415
403
399
403
396
388
395
413
411
409
415
426
439
437
425
412
390
394
384
364
334
306
280
262
256
256
236
210
180
161
143
113
90
83
91
100
100
88
71
56
40
15
-23
-76
-104
-106
-97
-91
-104
-99
-127
-154
-193
-225
-281
-391
-488
-541
-591
-649
-699
-774
-833
-878
-892
-894
-898
-912
-958
-986
-977
-987
-1013
-1038
-1053
-1048
-1036
-1022
-995
-987
-981
-987
-953
-893
-813
-720
-639
-569
-499
-434
-404
-363
-316
-268
-230
-175
-136
-109
-85
-69
-40
-28
-8
-7
6
22
48
62
74
80
91
77
68
63
42
31
15
-15
-32
-59
-97
-137
-191
-237
-267
-288
-307
-320
-334
-376
-423
-502
-603
-700
-835
-954
-1047
-1061
-1013
-934
-835
-733
-672
-634
-612
-608
-614
-619
-631
-637
-628
-626
-627
-638
-655
-664
-682
-691
-701
-696
-703
-712
-712
-721
-718
-721
-711
-727
-725
-752
-749
-760
-764
-756
-741
-737
-727
-718
-697
-666
-643
-594
-555
-507
-470
-437
-389
-362
-325
-305
-275
-254
-218
-206
-177
-153
-136
-119
-91
-77
-61
-39
-17
-4
16
22
29
40
53
66
75
91
108
128
149
165
189
200
216
226
236
239
254
265
272
273
269
271
275
290
292
309
313
332
348
348
365
361
371
370
371
387
396
416
415
418
428
430
435
433
436
439
455
451
451
456
459
462
449
441
452
450
465
456
460
443
437
429
422
411
410
414
412
405
410
400
407
392
390
384
377
363
361
358
356
355
361
357
355
350
347
344
338
335
332
333
323
315
314
304
304
306
305
293
282
265
249
244
234
218
224
224
221
225
214
206
209
212
205
215
213
212
212
212
208
213
221
211
208
220
228
257
264
260
241
206
140
63
-49
-162
-244
-298
-280
-209
-109
-6
97
158
197
219
224
237
239
244
235
231
232
231
227
226
209
207
208
192
187
184
178
168
159
156
141
137
135
134
127
134
135
134
128
118
111
104
97
98
102
93
92
82
79
71
68
66
67
79
76
70
62
60
58
49
52
38
41
36
34
28
32
18
19
29
31
29
27
21
24
26
30
35
32
35
37
44
45
48
52
49
55
50
63
56
59
57
44
45
46
49
51
40
32
36
24
20
23
18
10
3
-3
-13
3
4
3
8
12
7
10
2
-3
1
-3
-11
1
4
-3
-2
-9
3
1
-3
5
-7
-4
-11
-3
3
2
-4
-5
-7
-6
-6
3
-11
-9
-4
1
6
10
-2
13
-2
3
8
10
13
12
3
9
-9
-10
-18
-7
-11
-16
-17
-24
-18
-7
4
6
12
16
7
12
17
12
0
3
15
10
16
16
23
16
25
38
43
55
63
44
-10
-64
-156
-256
-370
-450
-493
-453
-359
-248
-155
-65
-6
38
57
56
64
53
47
47
51
56
64
61
51
55
48
59
58
59
57
42
37
37
34
38
32
25
26
17
10
9
20
18
7
-1
-4
2
-6
-8
-13
-11
-4
-4
-7
-23
-24
-17
-13
-9
-22
-28
-37
-30
-38
-28
-32
-44
-39
-34
-37
-31
-25
-30
-44
-46
-53
-37
-33
-36
-25
-26
-14
-13
-15
-6
-6
-8
-4
5
-6
-11
-5
0
-6
-13
-8
-12
-2
4
-13
-4
2
1
-1
-5
-1
-12
-5
-11
-13
-8
-12
-19
-17
-20
-7
-11
-3
-5
-17
-22
-24
-21
-13
-16
-16
-4
-5
3
5
0
3
11
4
10
5
-6
-4
-6
-17
-1
10
12
-3
-7
0
-7
-2
-5
-4
-2
3
-3
-4
-1
6
5
12
3
-6
0
-4
0
-10
-13
-18
-21
-24
-26
-32
-27
-21
-10
-10
-1
-9
-2
2
19
16
24
13
10
3
6
8
4
9
7
9
24
36
49
27
1
-55
-123
-209
-325
-423
-501
-512
-453
-356
-254
-148
-82
-28
1
20
25
37
37
40
37
44
29
37
32
39
28
31
29
22
23
16
5
8
8
4
7
-5
-3
-6
-10
-10
-17
-13
-10
-19
-26
-17
-28
-25
-31
-27
-30
-24
-34
-35
-45
-49
-42
-52
-48
-40
-46
-41
-49
-44
-34
-38
-32
-43
-47
-50
-51
-45
-55
-42
-46
-33
-26
-37
-45
-45
-43
-39
-34
-40
-23
-22
-18
-7
-11
-8
-5
5
12
4
11
8
1
-5
-13
-15
-7
-12
-16
-14
-9
-13
-15
-19
-18
-16
-19
-14
-21
-26
-24
-20
-25
-20
-17
-27
-29
-29
-37
-32
-35
-21
-27
-34
-34
-34
-36
-44
-37
-42
-34
-35
-45
-40
-31
-38
-38
-29
-32
-27
-24
-28
-30
-36
-40
-28
-32
-32
-24
-32
-33
-43
-35
-24
-27
-31
-32
-34
-33
-51
-52
-60
-61
-58
-60
-65
-59
-60
-45
-34
-37
-26
-24
-17
-15
-19
-20
-23
-28
-16
-30
-20
-12
-14
-16
-16
-9
13
35
38
30
5
-54
-117
-213
-315
-428
-515
-553
-511
-416
-301
-198
-108
-36
-9
22
34
46
39
48
45
54
54
54
57
57
50
50
49
41
38
40
29
34
20
24
22
21
17
5
2
9
15
6
2
-5
-11
-22
-26
-33
-32
-35
-29
-36
-37
-35
-33
-35
-49
-39
-44
-49
-45
-42
-40
-46
-51
-49
-53
-50
-61
-52
-64
-65
-60
-60
-63
-65
-62
-68
-58
-57
-62
-58
-51
-46
-53
-54
-46
-53
-51
-41
-45
-45
-45
-47
-50
-43
-47
-49
-56
-57
-57
-58
-65
-60
-51
-48
-60
-57
-58
-53
-49
-57
-45
-48
-53
-53
-54
-56
-48
-57
-55
-53
-52
-50
-47
-49
-63
-60
-61
-61
-58
-58
-58
-60
-58
-56
-65
-60
-58
-66
-64
-68
-65
-69
-66
-69
-68
-74
-77
-69
-64
-61
-62
-64
-65
-53
-65
-68
-71
-71
-74
-72
-72
-77
-85
-86
-89
-88
-84
-80
-67
-57
-49
-42
-41
-41
-41
-44
-40
-37
-40
-41
-40
-37
-34
-32
-37
-28
-26
-11
11
26
24
7
-33
-110
-186
-285
-394
-490
-546
-530
-461
-349
-240
-149
-83
-29
0
3
9
17
15
24
16
20
19
22
13
24
27
29
23
24
30
39
24
28
26
23
33
24
13
15
12
0
1
8
-1
3
2
0
-18
-15
-19
-8
-19
-12
-19
-11
-23
-24
-23
-32
-24
-30
-24
-32
-24
-31
-23
-25
-37
-27
-30
-23
-29
-27
-25
-25
-18
-17
-16
-9
-2
-3
-12
3
2
17
12
18
21
24
28
26
18
23
18
24
18
19
18
7
8
8
12
10
15
18
14
10
3
1
15
14
17
13
8
6
6
6
4
4
13
12
27
33
38
52
47
49
54
67
69
75
84
85
97
104
112
108
115
117
112
114
104
107
108
90
80
60
56
43
33
17
8
1
-18
-18
-33
-37
-50
-52
-56
-62
-57
-46
-45
-40
-36
-40
-38
-30
-40
-30
-45
-32
-32
-40
-40
-40
-43
-35
-40
-35
-8
17
27
14
-9
-73
-147
-228
-340
-447
-531
-560
-515
-405
-285
-169
-96
-39
4
12
30
22
32
32
38
42
40
33
33
30
33
25
32
33
24
23
11
22
14
15
11
13
10
4
9
11
10
-2
4
-5
-8
-7
-5
-5
-15
-11
-11
-8
-8
-14
-16
-14
-23
-28
-25
-30
-21
-31
-37
-36
-33
-36
-27
-26
-25
-29
-25
-18
-14
-16
-20
-28
-15
-8
-5
-11
3
1
10
9
1
11
8
14
10
7
-1
3
9
3
2
-12
-2
-12
-14
-21
-26
-14
-13
-14
-17
-25
-32
-16
-19
-21
-22
-18
-21
-16
-19
-36
-40
-34
-24
-37
-25
-43
-36
-37
-42
-40
-33
-28
-35
-31
-32
-29
-31
-34
-31
-25
-29
-30
-29
-26
-24
-31
-27
-21
-22
-29
-17
-7
-19
-14
-15
-15
-21
-24
-22
-11
-15
-11
-12
-19
-23
-33
-31
-30
-30
-34
-36
-38
-45
-42
-38
-30
-28
-19
-16
-17
-12
-13
-5
-10
-12
-12
-8
-9
-11
-5
-10
0
4
7
29
44
49
34
-12
-64
-158
-249
-367
-471
-524
-524
-455
-332
-214
-112
-43
1
26
41
43
55
66
60
63
69
63
80
71
67
68
66
73
62
68
68
75
67
67
63
57
70
74
59
53
60
50
44
45
40
38
38
38
41
45
40
42
29
32
33
24
32
25
32
31
23
35
41
35
31
25
24
30
26
29
31
28
25
14
19
16
29
26
37
36
48
48
47
47
50
51
53
55
60
63
61
60
53
54
51
63
56
70
65
70
73
83
92
87
96
103
97
93
104
91
97
106
112
107
111
99
105
100
101
92
88
80
63
55
54
39
36
9
2
-13
-17
-15
-11
-20
-20
-17
-17
-18
-29
-30
-25
-18
-29
-22
-24
-22
-26
-34
-32
-33
-42
-37
-39
-46
-40
-47
-43
-39
-44
-47
-57
-56
-56
-62
-69
-68
-86
-98
-107
-115
-111
-120
-116
-105
-104
-102
-101
-83
-87
-81
-84
-78
-83
-67
-69
-76
-70
-72
-71
-81
-76
-76
-59
-40
-16
3
11
-20
-64
-129
-226
-337
-460
-561
-611
-597
-502
-371
-256
-147
-88
-41
-13
7
7
19
17
23
14
11
14
16
7
13
10
8
12
7
10
3
4
5
6
16
6
14
0
-3
-2
-6
-9
-5
-7
-10
-11
-7
-9
-12
-16
-24
-17
-21
-24
-31
-30
-39
-39
-30
-28
-27
-39
-40
-37
-43
-45
-45
-34
-49
-45
-47
-57
-52
-46
-47
-44
-50
-46
-34
-39
-31
-33
-20
-20
-22
-21
-30
-17
-17
-24
-20
-24
-28
-15
-20
-16
-17
-11
-7
-16
-13
-18
-9
-11
-17
-19
-15
-13
-17
-14
-6
-14
-20
-15
-16
-21
-18
-21
-11
-18
-23
-13
-16
-19
-20
-30
-24
-14
-19
-27
-25
-27
-25
-20
-27
-32
-27
-32
-23
-23
-30
-27
-24
-25
-23
-25
-39
-37
-32
-43
-36
-46
-44
-51
-55
-55
-65
-58
-71
-74
-81
-83
-85
-74
-63
-62
-48
-48
-35
-32
-25
-21
-27
-19
-31
-32
-28
-29
-15
-27
-29
-30
-24
-15
3
27
43
16
-25
-96
-178
-292
-420
-516
-581
-583
-507
-385
-256
-150
-80
-27
9
19
30
23
45
39
40
47
49
51
53
52
46
46
40
39
35
37
25
30
25
25
30
27
18
22
29
11
8
13
10
17
13
-1
5
0
-4
-6
-10
-5
0
-4
2
-13
-10
-7
-10
-21
-20
-27
-25
-20
-13
-21
-16
-20
-16
-31
-30
-21
-19
-22
-13
-15
-15
-11
-17
-15
-7
-8
4
5
8
11
25
28
21
12
24
23
17
16
12
17
11
9
4
5
6
10
20
14
7
12
3
8
12
5
5
3
7
8
-4
2
7
6
8
-1
0
-8
-3
-6
-4
1
-7
5
-3
-10
-7
7
4
13
10
6
8
20
12
13
17
11
12
18
16
9
3
14
18
15
20
12
11
11
13
6
9
2
-4
3
-8
-6
-10
-27
-39
-38
-45
-33
-37
-23
-28
-16
-21
-15
-10
0
-10
-10
0
-13
-9
-10
-17
-17
-19
-12
-18
-15
-5
19
30
51
48
5
-54
-123
-228
-329
-447
-535
-578
-543
-441
-312
-196
-97
-43
0
13
27
33
42
39
40
39
37
34
39
33
36
30
28
22
19
19
17
11
15
12
13
16
12
4
6
8
2
1
3
3
-10
-5
-14
-16
-3
-8
-6
-14
-4
-5
-18
-10
-18
-9
-14
-15
-9
0
2
-7
-10
-14
-13
-19
-19
-23
-25
-34
-35
-28
-35
-32
-26
-24
-26
-33
-28
-32
-28
-19
-20
-18
-8
-11
-4
3
0
-11
-8
-3
-5
-3
-5
-4
3
-9
-4
3
-3
5
10
11
4
4
7
5
5
15
7
6
-3
4
3
9
9
3
1
9
1
-3
2
1
-10
-5
-11
-11
-7
0
-4
2
-4
2
-6
8
5
10
16
11
1
8
3
1
-8
3
-5
-1
-6
-12
-6
-19
-24
-32
-33
-42
-45
-64
-73
-81
-81
-85
-93
-95
-81
-79
-66
-69
-63
-56
-48
-58
-57
-49
-51
-43
-49
-45
-52
-55
-45
-44
-45
-45
-26
-8
8
7
-13
-64
-126
-210
-319
-440
-528
-578
-551
-471
-359
-239
-149
-79
-36
-20
5
10
15
24
29
24
42
38
37
36
35
32
32
32
32
33
25
28
30
25
23
13
16
5
8
14
3
10
-5
-7
-19
-18
-21
-20
-20
-23
-17
-13
-10
-20
-11
-17
-23
-19
-25
-24
-19
-22
-23
-33
-41
-39
-32
-41
-43
-41
-35
-35
-32
-30
-28
-27
-37
-31
-44
-45
-40
-36
-31
-25
-29
-24
-16
-30
-26
-24
-27
-23
-32
-29
-36
-35
-24
-23
-30
-25
-19
-29
-26
-35
-25
-29
-30
-34
-35
-37
-32
-41
-36
-40
-47
-55
-56
-59
-53
-59
-70
-66
-79
-76
-72
-81
-77
-72
-80
-77
-71
-86
-80
-84
-82
-76
-68
-69
-78
-72
-61
-59
-61
-60
-62
-47
-51
-55
-65
-68
-66
-68
-69
-74
-64
-63
-52
-38
-30
-18
-19
-17
-16
-13
-12
-13
-15
-10
-13
-14
-8
-4
-8
-4
11
24
41
49
39
12
-33
-110
-197
-310
-397
-479
-502
-455
-350
-238
-145
-67
-19
25
39
54
45
52
44
55
51
47
43
46
47
50
40
40
39
44
42
36
42
35
31
35
32
30
33
23
30
19
24
17
18
23
20
21
4
14
15
5
7
1
10
11
12
7
12
13
16
21
24
20
12
11
23
15
20
28
26
20
18
21
5
16
14
19
20
21
33
31
36
44
43
49
50
44
48
53
55
66
63
56
61
67
69
61
74
71
75
68
75
78
75
82
77
83
73
75
85
75
76
67
71
72
68
71
72
69
76
67
72
64
57
60
67
57
61
63
67
56
59
53
57
60
63
55
49
50
49
40
34
25
26
22
19
22
25
27
36
39
48
38
35
45
45
38
40
35
38
39
32
29
35
36
34
32
55
74
90
84
66
15
-67
-152
-255
-367
-443
-468
-414
-310
-199
-104
-25
28
66
67
70
75
85
81
78
81
79
76
73
64
70
64
66
51
49
40
40
38
38
32
36
26
26
24
26
18
16
20
16
14
11
9
12
3
2
2
-2
-9
6
-10
-11
-14
-7
-15
-12
-17
-11
-16
-19
-27
-20
-21
-16
-21
-18
-23
-27
-24
-28
-25
-37
-27
-27
-18
-20
-11
-6
-9
0
1
-4
5
1
10
1
-4
3
6
11
-3
5
-4
-3
12
-3
-1
4
6
7
6
-4
9
5
10
9
-4
7
0
1
0
0
10
4
12
10
10
9
13
13
4
12
7
12
19
13
13
10
13
10
11
1
8
14
11
12
12
6
-6
-7
-18
-31
-35
-29
-34
-30
-33
-15
-7
-5
3
5
0
8
11
8
9
9
15
14
19
6
13
6
13
11
32
45
55
56
18
-39
-101
-174
-272
-376
-469
-509
-459
-366
-264
-154
-77
-25
7
30
31
36
48
54
50
48
45
48
52
42
43
38
48
40
36
26
26
31
32
28
18
22
12
9
3
-9
-7
-5
-8
-9
-10
-9
-7
-17
-28
-34
-30
-39
-28
-27
-36
-45
-34
-42
-46
-43
-41
-41
-42
-50
-50
-46
-33
-47
-42
-43
-40
-47
-46
-40
-43
-39
-43
-30
-27
-35
-28
-20
-22
-20
-20
-22
-14
-11
-13
-13
-8
-13
-23
-11
-23
-19
-4
-6
-4
-11
-5
-17
-12
-15
-21
-14
-19
-18
-16
-12
-18
-13
-24
-21
-26
-18
-22
-9
-10
-19
-23
-15
-13
-18
-19
-21
-19
-16
-22
-21
-21
-10
-18
-21
-23
-16
-29
-20
-28
-30
-39
-35
-52
-57
-57
-62
-63
-66
-69
-67
-44
-42
-33
-36
-36
-34
-20
-27
-22
-25
-28
-21
-26
-20
-32
-23
-14
-17
-9
9
26
28
12
-42
-97
-182
-283
-381
-473
-498
-473
-382
-275
-170
-93
-40
-9
13
19
19
29
41
37
35
35
30
28
23
28
26
18
17
9
8
11
8
10
16
11
7
0
7
-1
-8
-7
-3
-6
2
-2
-9
-10
-15
-9
-11
-16
-14
-21
-10
-11
-21
-21
-15
-17
-12
-17
-11
-11
-16
-18
-20
-16
-26
-21
-26
-24
-39
-39
-27
-28
-22
-23
-8
-15
-21
-19
-10
-19
-13
-17
-13
-7
-12
-5
-4
-7
-12
-16
-8
-15
-18
-16
-14
-19
-8
-17
-16
-9
-17
-13
-14
-17
-14
-17
-6
-19
-21
-9
-2
-11
-18
-13
-15
-15
-20
-13
-24
-16
-13
-20
-16
-24
-23
-28
-34
-21
-27
-24
-16
-26
-26
-25
-19
-27
-16
-19
-12
-21
-12
-18
-14
-14
-21
-21
-32
-24
-24
-24
-45
-47
-54
-52
-62
-47
-44
-47
-36
-38
-27
-22
-26
-18
-18
-15
-27
-19
-16
-23
-19
-24
-23
-17
-14
4
15
32
21
2
-32
-103
-180
-280
-384
-475
-521
-490
-410
-299
-189
-108
-43
-6
17
23
18
27
32
38
35
31
39
39
42
36
35
30
28
32
33
39
28
31
25
27
22
25
17
24
24
16
18
6
17
13
-5
-5
-11
3
-8
-13
-14
-18
-7
-14
-13
-18
-26
-16
-12
-18
-28
-25
-20
-29
-22
-29
-22
-26
-21
-24
-34
-32
-39
-32
-33
-39
-33
-20
-29
-23
-21
-25
-10
-16
-11
-19
-23
-23
-21
-20
-19
-25
-13
-15
-16
-15
-25
-17
-19
-15
-15
-17
-20
-16
-12
-23
-21
-22
-19
-26
-15
-16
-13
-23
-18
-25
-20
-11
-7
-8
-16
-17
-25
-19
-19
-22
-21
-19
-24
-20
-22
-28
-27
-19
-29
-20
-29
-16
-20
-25
-23
-16
-23
-26
-21
-29
-24
-30
-19
-32
-34
-27
-29
-25
-25
-22
-25
-20
-37
-47
-44
-50
-46
-52
-59
-65
-51
-44
-46
-43
-50
-42
-39
-37
-32
-28
-27
-17
-25
-23
-24
-27
-15
-27
-17
-3
15
22
13
-15
-59
-123
-215
-310
-405
-479
-507
-442
-357
-253
-154
-87
-29
-6
8
16
25
31
30
37
26
29
32
20
17
22
29
19
30
29
34
32
31
21
29
21
14
17
12
15
6
11
3
14
2
0
6
2
0
-5
-18
-7
-3
-5
-6
-7
-16
-18
-17
-17
-15
-4
-9
-5
-7
-13
-17
-12
-10
-10
-20
-13
-15
-8
-15
-22
-20
-15
-16
-12
2
-7
3
-7
1
-6
3
1
-7
-8
-9
3
-3
3
-4
2
-3
1
-2
-2
1
-5
1
-5
7
8
0
2
12
8
8
8
21
21
9
9
8
12
17
13
7
10
12
7
6
11
-1
5
9
4
9
4
6
4
15
12
10
9
9
13
6
15
24
17
20
16
18
12
21
3
2
2
5
0
-5
-12
-21
-26
-23
-24
-28
-19
-13
-4
-7
2
4
5
-4
-2
3
18
11
18
1
12
12
11
20
17
29
57
59
47
8
-50
-122
-210
-328
-421
-473
-473
-400
-282
-182
-98
-32
14
31
46
37
40
42
53
46
45
42
50
47
41
38
30
40
24
27
18
22
22
14
11
11
9
7
16
5
9
4
10
9
2
3
-2
-1
3
4
-8
-7
-11
-17
-18
-18
-13
-12
-19
-17
-11
-13
-13
-5
-9
-21
-17
-19
-22
-22
-19
-17
-12
-23
-19
-22
-23
-23
-21
-24
-24
-18
-19
-14
-13
-5
-6
-5
4
-7
-5
6
4
5
2
1
-5
-2
5
1
-6
-3
1
-9
-9
-8
-5
4
-1
-9
-5
1
1
0
-6
-5
-14
-9
-8
-12
-5
-13
-1
4
-4
8
2
0
-7
-5
-9
1
-3
-5
-4
-9
-9
-5
-14
-6
-13
-14
-10
-5
-19
-20
-27
-20
-16
-20
-17
-23
-21
-16
-12
-12
-18
-10
-17
-11
-6
-17
-19
-20
-21
-33
-41
-37
-47
-61
-66
-58
-53
-44
-48
-30
-33
-22
-16
-20
-12
-16
-16
-25
-22
-26
-25
-16
-23
-20
-13
9
27
30
19
-13
-56
-137
-208
-328
-419
-508
-532
-479
-379
-264
-163
-86
-31
-4
21
20
28
35
37
43
43
51
45
46
47
41
35
40
42
39
32
29
23
24
16
14
7
12
6
13
10
7
5
7
6
-1
-13
-4
-5
-19
-19
-22
-19
-23
-21
-21
-15
-27
-17
-24
-23
-18
-26
-16
-21
-18
-25
-16
-16
-29
-17
-22
-25
-25
-24
-29
-26
-18
-22
-25
-25
-20
-14
-21
-15
-8
-9
-13
-10
-13
-13
-12
4
-6
3
-3
4
-7
-6
-6
-10
-12
-9
-12
-8
-5
-5
-10
-15
-19
-17
-9
-14
-20
-15
-11
-11
-11
-12
-20
-12
-10
-17
-12
-15
-7
-15
-8
-12
-7
-14
-5
-9
-21
-14
-22
-18
-10
-18
-17
-15
-6
-9
-11
-9
-8
-11
-11
-5
-11
-21
-15
-18
-21
-27
-18
-24
-26
-20
-30
-18
-17
-22
-15
-9
-11
-6
-4
-17
-19
-32
-37
-38
-47
-45
-55
-57
-57
-45
-41
-32
-26
-24
-19
-23
-16
-19
-12
-20
-15
-15
-11
-14
-19
-6
-13
-7
17
37
47
32
6
-43
-110
-202
-293
-396
-475
-507
-468
-370
-247
-148
-79
-29
7
20
32
32
37
39
45
40
42
41
53
47
35
33
31
38
28
35
26
14
16
14
3
5
-8
-7
-7
-4
-4
-5
-3
-1
-13
-9
-10
-15
-7
-16
-20
-13
-16
-13
-5
-20
-20
-13
-18
-17
-27
-29
-25
-21
-25
-21
-21
-26
-20
-19
-22
-24
-19
-21
-21
-22
-22
-18
-22
-5
-9
-11
-10
-9
-8
-5
10
4
13
16
5
6
6
13
5
2
11
2
14
0
1
-6
0
2
7
12
8
8
9
3
-3
0
8
10
12
10
17
11
14
15
9
13
8
16
14
16
5
11
15
13
16
11
11
6
15
16
11
4
7
16
9
16
9
24
21
14
13
3
6
11
15
9
12
2
3
2
10
-2
6
-3
-2
2
0
-4
-6
-16
-23
-25
-30
-22
-24
-18
-12
-3
-5
2
-2
0
3
1
-7
-5
3
-5
3
-10
-4
-7
-1
8
26
48
54
59
14
-44
-112
-207
-302
-409
-475
-491
-440
-329
-218
-122
-49
-9
16
27
38
40
43
45
46
41
38
44
36
43
43
40
36
36
36
27
30
34
31
24
24
27
15
20
18
16
11
12
5
8
0
-6
-9
-6
-13
-10
-25
-21
-25
-28
-22
-20
-27
-17
-21
-19
-29
-27
-29
-27
-30
-24
-26
-33
-25
-24
-19
-25
-15
-18
-21
-29
-25
-15
-16
-13
-10
-16
-7
-9
0
-7
-5
-11
-5
-3
1
0
0
12
5
6
-3
-5
-5
-6
-6
3
-6
-4
-12
-8
-1
-7
-8
-17
-15
-19
-19
-11
-16
-21
-25
-14
-20
-14
-13
-23
-14
-21
-11
-18
-16
-19
-19
-20
-9
-19
-13
-18
-15
-22
-22
-19
-14
-19
-16
-7
-6
-21
-18
-22
-23
-20
-26
-24
-24
-26
-28
-23
-31
-29
-25
-24
-24
-25
-31
-22
-24
-23
-16
-25
-19
-23
-19
-34
-30
-34
-24
-25
-36
-42
-43
-48
-57
-67
-69
-59
-59
-40
-52
-38
-43
-33
-28
-38
-34
-22
-23
-27
-24
-29
-35
-24
-29
-28
-21
-1
11
23
15
-18
-74
-145
-234
-339
-445
-506
-533
-466
-368
-253
-159
-82
-31
-9
10
20
25
34
28
32
30
36
34
40
34
40
35
38
31
29
35
28
31
24
30
23
29
23
17
16
14
21
7
6
6
3
9
1
3
1
1
1
-6
-7
-19
-11
-11
-11
-17
-16
-17
-14
-18
-18
-23
-24
-18
-28
-24
-20
-24
-20
-17
-27
-23
-27
-23
-18
-14
-15
-18
-2
-3
4
0
-4
0
0
1
3
2
8
4
10
-1
15
18
9
5
11
6
11
8
-1
-2
1
-5
1
-10
-4
-5
-4
5
3
-6
3
-6
4
5
1
-4
6
-2
-5
0
-3
-7
4
-10
-6
4
6
0
0
-10
-4
6
2
-6
-9
-8
-9
-13
-17
-12
-16
-4
-13
-4
-13
-12
-10
-8
-14
-13
-9
-12
-9
-14
-14
-17
-10
-11
-24
-14
-16
-22
-19
-25
-28
-18
-19
-22
-25
-25
-24
-23
-23
-34
-20
-25
-30
-34
-29
-38
-42
-40
-52
-55
-52
-66
-63
-55
-50
-46
-45
-28
-30
-22
-31
-24
-18
-21
-33
-21
-28
-31
-33
-22
-23
-26
-17
8
23
26
30
4
-32
-104
-194
-297
-397
-480
-514
-474
-385
-281
-177
-103
-50
-18
11
20
21
29
39
36
40
41
40
35
46
32
41
25
31
29
39
28
23
29
24
13
18
7
11
11
15
12
6
-3
9
-3
-5
3
-9
-6
-5
-8
-16
-13
-12
-18
-14
-15
-8
-15
-12
-22
-19
-21
-13
-19
-21
-23
-19
-11
-19
-28
-23
-24
-21
-25
-20
-21
-20
-25
-14
-22
-24
-21
-11
-10
-17
-11
-12
-11
-3
4
-9
-9
1
8
-2
0
-11
1
-4
-8
-16
-15
-9
-13
-11
-9
-9
-14
-13
-16
-11
-5
-16
-5
-10
-9
0
-7
-12
0
-4
1
-2
5
2
3
-7
6
-7
0
-1
2
-5
-7
-9
-6
-13
-5
-7
1
-6
0
-1
-10
-7
-6
-10
-8
-3
-15
-15
-18
-8
-15
-6
-11
-2
-1
-7
-24
-14
-24
-10
-20
-14
-24
-22
-20
-11
-15
-23
-17
-21
-13
-19
-20
-29
-25
-30
-30
-26
-36
-38
-40
-47
-53
-53
-36
-36
-34
-25
-32
-27
-22
-15
-25
-16
-14
-21
-24
-24
-15
-17
-21
-20
-9
4
18
41
48
22
-11
-69
-138
-240
-368
-445
-500
-481
-410
-315
-195
-111
-45
-4
17
18
29
27
33
26
42
41
48
39
35
32
28
39
36
40
31
26
17
23
17
13
15
12
11
-1
4
3
5
10
-4
8
7
-6
-4
-9
-13
-14
-8
-16
-19
-16
-7
-10
-28
-23
-29
-26
-29
-28
-22
-29
-17
-21
-16
-20
-25
-17
-20
-20
-31
-29
-33
-30
-29
-14
-14
-16
-7
-12
-9
4
8
8
-6
-7
-1
-3
4
7
-1
-2
5
8
0
1
2
3
7
6
5
0
3
6
5
1
-3
4
-5
-4
1
7
-3
8
-1
5
4
4
10
3
8
5
5
11
4
2
-3
5
-5
-5
-13
-9
-10
-12
-5
-11
-5
-4
-7
3
-2
-3
-1
6
2
-6
-9
-10
-16
-14
-17
-18
-11
-11
-14
-9
-14
-12
-11
-10
-12
-15
-15
-14
-21
-10
-16
-21
-22
-19
-13
-24
-23
-20
-24
-18
-20
-20
-17
-17
-12
-27
-17
-17
-21
-33
-44
-38
-45
-59
-58
-68
-61
-51
-45
-50
-32
-38
-35
-31
-27
-34
-23
-29
-22
-28
-22
-28
-22
-25
-22
-23
2
21
24
28
11
-44
-97
-183
-287
-395
-480
-526
-500
-425
-297
-193
-114
-48
-14
6
13
28
35
27
42
39
42
40
40
43
45
40
37
38
44
44
39
32
23
22
29
28
21
23
12
11
10
14
5
5
12
13
10
7
-5
3
-2
-4
-8
-17
-16
-12
-11
-15
-14
-12
-18
-14
-23
-16
-14
-23
-16
-29
-20
-23
-14
-22
-26
-16
-19
-23
-13
-15
-14
-21
-13
-13
-6
-13
1
-11
-8
-6
-4
6
-3
8
-4
-3
11
-3
3
-1
-1
1
-4
-14
-10
-17
-7
-14
-10
-12
-15
-8
-19
-15
-18
-13
-10
-8
-20
-14
-20
-14
-16
-11
-13
-19
-8
-5
-5
-10
-6
-13
-13
0
-8
-7
-4
4
-3
-4
-12
-11
-13
-15
-15
-16
-13
-11
-12
-12
-17
-23
-19
-15
-15
-22
-13
-14
-13
-16
-5
-7
-3
-11
-16
-16
-13
-16
-28
-19
-29
-29
-26
-29
-28
-33
-31
-21
-19
-23
-24
-26
-21
-27
-29
-24
-23
-26
-28
-18
-23
-18
-26
-26
-25
-29
-32
-37
-37
-43
-53
-55
-55
-59
-59
-56
-37
-34
-33
-35
-35
-32
-35
-25
-33
-28
-27
-32
-30
-33
-32
-39
-32
-30
-20
-7
18
25
7
-24
-88
-176
-250
-354
-453
-509
-516
-446
-339
-236
-140
-85
-28
0
15
21
23
33
37
41
41
42
43
38
42
40
44
33
34
34
29
41
36
28
24
24
17
23
13
17
6
12
11
9
6
11
10
4
3
-5
2
-4
-8
-8
-12
-10
-14
-13
-10
-11
-15
-7
-8
-18
-16
-18
-15
-17
-21
-24
-23
-18
-23
-30
-22
-24
-20
-13
-13
-15
-13
-7
2
-6
8
2
15
12
12
7
9
14
7
8
11
17
9
7
5
15
9
12
13
13
6
2
-2
8
-3
5
-7
-6
0
-4
6
4
3
2
8
7
8
0
3
5
6
0
3
3
2
-5
3
1
-3
4
-4
-3
1
-2
2
3
-8
3
4
-4
-13
-11
-7
-12
-18
-18
-5
-7
-11
-13
-9
-13
-19
-20
-17
-15
-9
-12
-12
-21
-21
-11
-11
-5
-10
-13
-9
-12
-12
-12
-11
-19
-21
-22
-14
-17
-18
-18
-16
-28
-26
-39
-33
-48
-45
-53
-45
-44
-40
-42
-39
-34
-26
-19
-15
-17
-23
-20
-19
-21
-20
-15
-11
-8
-12
-15
-18
-9
14
34
32
34
5
-45
-117
-220
-322
-415
-493
-508
-464
-355
-255
-151
-73
-29
7
25
25
33
30
39
35
44
42
42
41
36
39
36
33
26
34
35
35
28
21
33
24
23
15
15
19
13
8
3
5
8
2
-4
-7
-2
-12
-15
-9
-16
-13
-17
-16
-21
-16
-24
-23
-18
-28
-25
-20
-21
-18
-20
-28
-25
-16
-27
-22
-18
-22
-18
-15
-12
-26
-11
-15
-13
-4
-5
3
5
8
2
3
17
22
19
21
6
17
7
9
5
6
20
11
6
9
9
1
3
7
3
8
-5
3
1
0
-4
2
-5
0
-10
-8
-2
3
2
2
-6
-4
6
4
4
-5
-1
0
-8
-8
-7
-7
-5
-5
-7
-12
-4
-2
-17
-18
-9
-20
-12
-1
-9
-8
-17
-16
-23
-17
-17
-23
-15
-12
-15
-12
-15
-21
-23
-22
-21
-20
-13
-15
-21
-14
-19
-20
-18
-27
-30
-27
-24
-25
-19
-23
-16
-24
-26
-25
-31
-26
-29
-33
-33
-33
-25
-27
-23
-27
-23
-36
-43
-56
-61
-58
-67
-50
-47
-39
-41
-43
-33
-27
-28
-23
-23
-13
-19
-21
-20
-10
-14
-4
-8
-15
-6
4
24
41
59
49
25
-21
-86
-177
-266
-371
-453
-493
-454
-365
-251
-149
-70
-12
26
49
63
62
65
69
76
70
72
75
75
79
76
82
64
70
59
49
46
31
26
27
20
11
-1
4
-9
-2
-4
-5
-12
-6
-7
-15
-15
-23
-27
-25
-31
-44
-40
-44
-44
-43
-45
-40
-48
-48
-51
-49
-47
-51
-52
-50
-59
-57
-59
-67
-72
-65
-74
-64
-54
-60
-62
-61
-49
-46
-36
-40
-30
-36
-33
-28
-30
-32
-22
-36
-26
-34
-28
-31
-43
-42
-48
-44
-55
-46
-51
-54
-65
-60
-69
-67
-80
-76
-82
-78
-86
-74
-74
-76
-73
-64
-76
-73
-59
-66
-66
-65
-57
-60
-55
-59
-57
-50
-48
-47
-66
-76
-68
-61
-62
-52
-66
-60
-50
-54
-67
-67
-63
-57
-47
-38
-47
-52
-51
-66
-64
-77
-70
-62
-54
-62
-71
-69
-70
-65
-65
-72
-65
-64
-58
-67
-69
-71
-64
-72
-78
-81
-87
-74
-85
-77
-77
-74
-65
-72
-74
-77
-74
-56
-72
-77
-75
-77
-72
-70
-84
-94
-106
-111
-117
-119
-109
-100
-90
-98
-87
-86
-82
-71
-75
-60
-68
-54
-54
-49
-63
-63
-47
-34
-45
-32
-13
8
36
18
-12
-68
-146
-228
-349
-447
-529
-540
-474
-356
-251
-153
-71
-24
6
16
25
30
24
32
33
37
44
53
75
68
67
71
72
77
79
76
71
70
73
59
57
52
63
61
51
52
40
29
17
17
18
34
28
15
3
-6
-4
4
-19
-21
-15
-11
-18
-35
-32
-35
-29
-33
-34
-51
-58
-54
-48
-28
-39
-32
-40
-37
-34
-35
-44
-38
-30
-11
-7
-9
9
22
24
24
20
32
44
44
36
32
43
54
53
52
56
46
41
33
35
39
49
35
40
47
52
50
58
47
40
32
42
37
43
49
47
44
45
35
19
14
34
27
32
32
29
41
39
40
30
22
31
25
21
24
14
28
28
21
20
13
23
20
27
25
15
17
14
8
14
16
23
24
18
5
8
5
19
14
13
13
15
24
5
3
2
9
18
18
4
-10
-18
-28
-24
-41
-34
-17
3
-3
-4
7
11
20
17
8
10
-1
3
-6
-7
4
24
26
20
9
20
35
58
47
14
-43
-118
-192
-308
-415
-496
-519
-456
-348
-232
-128
-42
21
56
49
46
39
47
47
49
55
70
69
65
50
50
51
57
49
36
25
32
33
37
38
40
38
47
39
36
20
29
26
26
31
25
22
25
18
-7
-13
-10
-5
-10
-8
-22
-19
-31
-40
-53
-58
-57
-53
-57
-61
-60
-56
-48
-50
-63
-69
-56
-53
-53
-61
-51
-40
-27
-21
-33
-24
-28
-15
-4
2
11
12
18
19
25
27
22
20
16
17
6
12
12
20
18
14
26
23
19
22
14
12
12
4
4
-2
13
24
22
18
12
20
21
14
9
2
15
11
12
15
16
18
27
27
32
33
26
27
24
21
17
26
30
33
39
41
41
48
47
57
62
61
61
59
51
44
61
57
53
54
40
52
64
68
56
65
62
69
65
65
64
76
86
90
79
76
81
80
73
72
73
65
64
75
72
85
104
107
121
129
123
130
132
136
130
129
115
121
121
127
120
128
144
158
177
184
174
154
94
14
-86
-206
-304
-385
-402
-350
-235
-117
-11
58
99
143
156
169
167
174
184
190
190
192
187
188
196
188
176
177
176
189
189
187
182
186
190
190
176
171
166
169
166
158
148
160
148
145
139
124
130
121
114
102
98
92
100
94
90
79
76
79
72
73
60
59
69
62
55
60
55
43
40
43
41
43
47
48
48
43
51
57
56
54
63
63
68
72
61
57
49
59
44
43
41
33
33
29
19
20
13
0
-7
-16
-17
-22
-22
-26
-40
-39
-35
-45
-45
-52
-56
-53
-57
-62
-67
-61
-75
-70
-72
-67
-64
-73
-74
-85
-102
-102
-103
-104
-99
-104
-98
-100
-100
-101
-107
-111
-107
-112
-110
-113
-118
-109
-115
-115
-128
-130
-130
-136
-134
-136
-136
-146
-146
-152
-161
-154
-156
-152
-163
-168
-163
-161
-163
-153
-168
-183
-177
-179
-185
-182
-187
-193
-205
-214
-208
-220
-213
-216
-221
-214
-221
-211
-205
-209
-203
-199
-190
-186
-195
-190
-188
-187
-185
-183
-174
-172
-172
-168
-164
-158
-143
-144
-166
-206
-264
-344
-435
-541
-630
-691
-695
-619
-511
-388
-314
-237
-204
-168
-161
-159
-157
-145
-139
-135
-126
-121
-118
-121
-119
-118
-120
-108
-115
-106
-113
-101
-99
-100
-105
-114
-119
-115
-111
-110
-113
-114
-121
-111
-112
-109
-113
-106
-106
-106
-102
-98
-100
-100
-104
-95
-100
-95
-94
-89
-94
-93
-99
-106
-100
-89
-88
-86
-94
-87
-85
-80
-77
-68
-69
-56
-58
-63
-49
-46
-45
-38
-31
-31
-25
-21
-14
-15
-8
6
1
8
-4
-17
-18
-12
-11
1
10
7
7
18
13
18
24
17
16
24
28
24
21
24
30
32
29
27
30
12
19
20
25
25
30
33
28
25
28
25
34
33
34
31
44
34
40
36
34
29
33
27
32
26
37
35
33
34
25
23
27
23
25
30
40
31
41
27
22
32
31
35
20
29
27
32
29
23
12
13
13
6
-5
-3
-7
-9
2
-1
9
11
10
20
26
26
26
31
32
22
25
26
24
24
19
14
15
17
33
52
65
62
44
-6
-77
-152
-253
-355
-446
-471
-430
-332
-214
-127
-46
12
46
66
64
60
64
67
67
71
73
71
67
75
81
80
67
75
67
66
60
55
58
54
56
45
40
42
50
49
38
35
32
33
30
29
20
24
18
23
18
13
14
8
7
4
-7
-3
-9
-13
-9
-11
-9
-7
-5
-17
-11
-15
-12
-12
-15
-19
-10
-10
-12
-9
-3
2
12
12
14
13
16
20
27
34
36
37
34
35
30
25
34
34
32
32
28
20
28
21
23
24
22
24
17
12
2
3
3
9
7
11
15
15
16
7
7
13
10
14
17
6
8
18
8
8
13
3
3
7
2
-7
3
0
3
9
18
17
22
15
14
15
4
7
3
-5
-9
-6
6
6
2
-8
-9
0
3
9
3
0
-1
-6
-6
-14
-9
-1
-6
-11
-21
-20
-30
-30
-43
-45
-46
-35
-31
-30
-25
-28
-21
-28
-31
-21
-26
-21
-21
-13
-14
-15
-13
2
-11
-15
-8
9
27
36
17
-19
-71
-136
-235
-338
-439
-508
-530
-469
-361
-255
-156
-74
-21
-2
25
30
48
45
48
47
46
29
37
44
45
30
39
40
34
37
37
42
29
35
27
27
30
32
25
20
19
22
14
26
19
17
10
3
11
0
-4
-19
-18
-24
-21
-20
-23
-12
-21
-16
-23
-28
-24
-32
-30
-44
-45
-43
-43
-34
-51
-53
-45
-45
-49
-37
-28
-32
-36
-32
-23
-24
-26
-21
-20
-16
-15
-5
-9
-16
-12
-14
-11
-15
-19
-24
-31
-25
-23
-21
-30
-37
-34
-39
-31
-39
-30
-34
-30
-37
-40
-28
-44
-35
-38
-32
-37
-41
-36
-37
-22
-18
-26
-29
-38
-41
-33
-35
-24
-27
-28
-31
-25
-17
-19
-21
-22
-30
-34
-23
-35
-33
-33
-30
-13
-19
-14
-21
-22
-24
-21
-30
-23
-19
-23
-19
-16
-25
-16
-14
-14
-19
-19
-32
-24
-24
-17
-20
-18
-19
-10
-23
-31
-22
-29
-25
-28
-31
-37
-43
-38
-53
-64
-55
-45
-34
-39
-32
-34
-34
-23
-29
-24
-28
-19
-31
-33
-16
-18
-19
-34
-19
-19
3
16
32
30
-20
-78
-166
-253
-356
-463
-524
-529
-445
-341
-219
-134
-73
-29
-4
17
32
31
43
46
49
47
41
47
35
32
39
40
44
45
39
33
29
32
26
26
20
27
13
4
-11
-24
-16
-18
-11
-5
-6
3
-14
-19
-21
-15
-17
-15
-26
-25
-24
-28
-31
-45
-50
-53
-45
-53
-54
-57
-54
-44
-52
-42
-44
-49
-46
-51
-45
-49
-43
-31
-39
-29
-34
-31
-32
-10
-10
-16
-11
1
4
12
12
9
6
11
8
5
6
-9
1
6
7
14
9
19
6
6
7
12
10
10
2
14
18
8
-2
-9
-4
5
3
10
3
7
4
7
8
9
13
18
17
20
13
18
17
11
21
18
25
28
25
31
28
21
17
13
20
16
19
20
1
-2
7
21
18
18
16
12
15
14
17
11
7
6
1
3
10
18
14
14
15
14
20
10
17
10
-7
-8
-11
-13
-20
-32
-35
-32
-17
-15
-8
3
13
12
14
7
0
0
8
10
9
2
5
24
11
18
13
36
52
72
69
47
10
-52
-136
-240
-361
-430
-489
-483
-407
-288
-173
-87
-25
24
41
47
56
48
51
56
55
69
79
69
66
61
58
70
69
67
64
46
42
33
34
36
28
35
42
42
38
27
25
22
23
15
22
18
-2
-6
0
-1
-3
1
-13
-11
-12
-11
-8
-15
-17
-19
-13
-10
-16
-19
-25
-18
-22
-21
-25
-23
-25
-31
-32
-23
-29
-21
-8
-8
3
21
17
25
29
23
27
26
20
18
13
15
20
13
19
28
20
26
18
27
19
28
19
15
17
20
6
6
8
-2
-5
7
13
8
10
9
8
14
8
0
9
10
12
8
-8
-9
-5
-12
-4
-7
-3
-3
6
10
-5
-12
-2
-2
-4
4
2
-1
-2
0
-11
-15
-11
-13
-10
-14
-8
-7
-11
0
-7
-10
-14
-5
-12
-21
-15
-11
-5
-8
-7
3
-16
-7
-13
-21
-20
-8
-7
-10
-6
-15
-9
-20
-18
-21
-22
-16
-27
-33
-32
-37
-47
-45
-46
-45
-51
-46
-40
-35
-29
-16
-15
-19
-23
-24
-23
-16
-20
-24
-35
-22
-27
-23
-15
-8
14
10
-3
-46
-94
-173
-248
-365
-457
-523
-533
-474
-362
-250
-154
-74
-32
-5
7
13
26
27
34
39
54
52
56
68
72
72
75
69
64
58
48
51
48
35
33
31
39
46
44
37
35
25
36
28
33
22
25
10
0
-10
-1
-13
1
-6
-11
-11
-17
-10
-19
-24
-27
-32
-32
-37
-35
-44
-40
-39
-35
-39
-43
-43
-31
-43
-28
-32
-32
-20
-15
-14
-13
-11
0
2
6
4
8
3
7
9
1
-7
-1
-3
-9
-2
-2
8
1
-2
4
0
1
3
0
-5
-18
-12
-16
-14
-24
-24
-25
-21
-21
-21
-13
-18
-24
-23
-19
-16
-17
-18
-15
-21
-26
-25
-19
-23
-24
-13
-22
-33
-28
-25
-19
-22
-16
-21
-16
-16
-27
-21
-31
-32
-27
-24
-26
-26
-23
-28
-28
-35
-32
-36
-32
-29
-33
-31
-49
-47
-38
-33
-28
-42
-37
-43
-43
-40
-39
-48
-35
-47
-40
-51
-51
-56
-44
-40
-49
-43
-41
-45
-58
-73
-80
-77
-92
-92
-93
-81
-69
-59
-57
-58
-55
-58
-52
-56
-61
-58
-45
-38
-42
-52
-46
-52
-50
-49
-45
-25
-9
6
-11
-50
-109
-172
-267
-381
-480
-545
-548
-479
-372
-255
-162
-97
-45
-29
-9
0
11
19
15
23
20
22
22
18
17
19
23
14
6
10
10
2
2
-4
-2
4
-6
0
-9
-2
-6
-7
1
-13
-17
-18
-25
-36
-40
-29
-25
-30
-31
-31
-31
-37
-42
-37
-50
-43
-34
-39
-39
-38
-52
-49
-53
-48
-59
-60
-69
-75
-64
-63
-53
-52
-45
-32
-31
-34
-26
-25
-23
-25
-14
-4
-3
-3
8
4
13
15
9
11
-1
-6
-6
0
4
8
6
6
8
-2
1
-8
-2
-5
-3
8
5
6
-11
-6
-8
-7
-4
13
18
9
8
13
12
3
5
-7
-11
-6
-7
9
-1
10
3
-4
2
-4
-11
-12
-18
-14
-5
2
8
3
-11
-21
-26
-43
-42
-35
-29
-36
-32
-37
-41
-37
-30
-31
-36
-39
-44
-36
-36
-38
-37
-44
-52
-45
-33
-27
-24
-29
-35
-33
-42
-43
-39
-29
-22
-31
-33
-43
-37
-49
-60
-70
-69
-54
-48
-46
-45
-31
-31
-31
-32
-28
-28
-25
-25
-15
-21
-27
-25
-39
-30
-26
-20
7
16
32
25
-7
-45
-114
-205
-309
-414
-480
-511
-442
-344
-243
-153
-79
-24
6
34
39
42
43
58
62
59
47
44
53
71
71
71
57
58
65
63
54
43
42
33
20
17
19
30
36
34
31
30
31
33
19
16
11
16
11
5
-6
0
8
-5
-7
-1
6
9
8
3
-2
4
4
-8
-5
-5
4
7
-7
-5
-5
-7
1
7
7
8
7
18
24
32
42
26
31
26
30
40
44
45
40
39
49
68
75
71
65
58
44
46
43
33
40
45
42
38
44
35
33
45
39
44
45
41
33
40
38
44
46
33
26
32
25
17
17
14
9
14
23
24
28
35
23
18
23
17
22
27
21
14
10
1
-2
3
3
9
3
8
7
0
-4
-2
-5
6
8
7
8
10
2
12
3
-7
-5
5
11
5
-5
-2
-5
-7
-6
-7
-3
1
5
3
-2
-3
-17
-35
-36
-35
-41
-42
-36
-34
-33
-30
-28
-16
-16
-17
-16
-28
-18
-16
-20
-17
-21
-16
2
-7
2
-7
8
26
34
40
2
-49
-106
-184
-296
-407
-488
-517
-484
-395
-279
-170
-91
-36
2
9
19
21
34
38
25
27
30
29
32
25
23
18
24
23
23
26
10
20
17
17
12
13
16
8
1
2
1
-11
-4
-9
-11
-24
-25
-27
-29
-20
-10
-10
-12
-26
-33
-30
-29
-23
-40
-42
-55
-53
-48
-59
-61
-49
-55
-45
-49
-30
-25
-33
-35
-35
-26
-22
-20
-13
-4
-2
7
10
9
1
2
4
14
22
20
32
29
25
31
23
30
34
28
20
21
18
16
21
14
20
14
18
15
11
11
12
14
14
16
16
15
25
9
16
13
16
14
14
5
1
-5
4
4
5
12
8
5
0
8
9
6
7
7
2
-7
-3
1
-4
-4
-15
-12
1
-13
-15
-31
-38
-38
-39
-45
-35
-41
-33
-24
-8
0
-10
2
3
10
16
17
25
20
13
24
17
18
21
13
25
48
59
69
70
42
-9
-80
-171
-267
-368
-439
-466
-405
-301
-190
-90
-14
30
51
70
76
78
84
74
73
78
85
87
91
88
85
69
70
70
68
67
56
56
49
48
47
39
44
36
42
40
35
32
24
16
15
8
11
11
9
6
-4
2
-6
-16
-23
-15
-25
-28
-23
-30
-27
-33
-43
-35
-39
-43
-35
-46
-30
-39
-43
-44
-38
-43
-40
-35
-25
-15
-11
-18
-6
-8
-7
-13
-11
-13
-14
-8
4
3
1
-2
5
2
2
-8
-9
-12
-13
-9
-6
-9
-10
-9
-18
-14
-13
-21
-26
-17
-21
-19
-22
-15
-10
-20
-21
-16
-19
-19
-21
-25
-24
-24
-15
-16
-10
-13
-18
-32
-26
-32
-24
-24
-22
-20
-23
-22
-24
-16
-13
-20
-29
-21
-21
-29
-35
-40
-44
-38
-38
-38
-37
-44
-50
-48
-62
-63
-69
-69
-78
-78
-81
-87
-80
-75
-69
-59
-58
-50
-51
-55
-63
-54
-47
-48
-47
-40
-50
-54
-47
-50
-47
-31
-20
2
6
-24
-65
-124
-195
-290
-395
-483
-539
-525
-440
-337
-222
-126
-69
-37
-17
-5
0
6
7
9
8
14
12
11
11
13
15
16
13
10
4
6
-1
-2
-7
-14
-22
-17
-17
-21
-25
-33
-26
-26
-29
-38
-37
-41
-38
-45
-49
-55
-44
-60
-58
-58
-56
-63
-56
-60
-60
-69
-65
-61
-67
-66
-71
-63
-60
-64
-63
-75
-68
-63
-61
-60
-58
-61
-57
-58
-50
-48
-42
-43
-43
-37
-31
-29
-21
-23
-25
-28
-20
-20
-32
-26
-23
-14
-10
-21
-13
-14
-15
-10
-14
-22
-21
-12
-17
-16
-27
-16
-16
-12
-23
-24
-17
-17
-20
-17
-17
-9
-14
-9
-9
-11
-4
-9
0
-2
-4
-8
-10
-12
-18
-14
-9
-12
-12
-14
-21
-15
-14
-5
-2
-2
-8
4
2
-8
5
8
-7
-9
-10
-1
1
0
-4
-10
-8
-21
-13
-16
-25
-35
-35
-32
-32
-32
-22
-15
-6
1
8
3
-3
5
-3
0
7
14
12
13
4
19
16
28
38
58
74
73
54
8
-63
-156
-263
-351
-427
-468
-427
-329
-216
-114
-44
14
31
58
59
66
73
75
88
88
82
77
78
79
76
74
63
62
54
50
45
46
54
50
54
56
47
47
40
45
34
32
27
17
12
17
10
11
14
11
-7
-9
-8
-5
-14
-21
-23
-27
-24
-32
-34
-28
-35
-32
-33
-40
-52
-49
-39
-40
-41
-32
-31
-48
-50
-43
-53
-42
-35
-32
-28
-27
-22
-19
-18
-14
-21
-18
-15
-12
-12
-4
-6
-10
-18
-24
-25
-29
-25
-22
-27
-12
-19
-23
-18
-18
-26
-31
-30
-22
-27
-24
-16
-16
-23
-28
-30
-24
-26
-19
-22
-20
-21
-28
-34
-41
-28
-33
-19
-31
-35
-42
-41
-39
-43
-46
-48
-39
-32
-29
-37
-42
-49
-28
-43
-55
-56
-64
-64
-61
-55
-66
-72
-85
-87
-93
-100
-84
-79
-72
-66
-64
-59
-58
-45
-47
-50
-35
-39
-40
-51
-55
-49
-40
-48
-49
-37
-14
11
23
1
-42
-90
-161
-260
-368
-472
-538
-538
-465
-336
-225
-143
-85
-49
-22
-17
-6
7
16
17
8
13
13
5
-4
-1
13
14
13
3
-16
-8
-9
-7
-6
-5
-6
2
3
1
-14
-20
-24
-29
-30
-34
-27
-26
-23
-35
-39
-37
-21
-27
-35
-49
-45
-29
-36
-41
-47
-55
-51
-55
-47
-42
-47
-48
-48
-58
-59
-49
-39
-34
-41
-43
-43
-36
-33
-31
-37
-36
-27
-13
-8
-15
-3
-5
11
6
12
7
1
12
-2
-8
-1
3
8
1
-3
5
10
1
-3
-4
7
1
15
9
5
2
2
3
-3
6
1
10
7
8
6
12
16
18
11
1
1
0
13
10
15
8
10
12
14
14
14
19
26
29
29
21
22
21
6
8
16
25
22
18
10
27
22
23
20
14
11
22
14
8
15
12
13
-2
-12
-27
-29
-26
-33
-33
-19
-9
9
15
12
6
-10
-3
5
2
-9
-4
-2
0
6
16
13
21
28
35
58
59
49
21
-30
-120
-195
-296
-388
-462
-485
-409
-299
-187
-90
-19
29
44
60
61
70
79
80
75
73
69
78
81
88
77
72
79
80
82
77
80
68
62
60
57
63
59
54
51
47
52
44
38
42
48
45
41
46
48
40
35
35
32
32
33
25
21
27
24
21
11
16
18
14
16
23
14
13
3
0
3
6
7
4
10
18
24
31
35
46
46
44
36
47
47
43
50
56
60
58
51
54
52
43
33
41
31
41
36
39
36
28
28
27
33
27
34
34
39
36
34
36
52
51
51
56
51
54
52
47
41
53
50
46
38
45
39
41
45
47
44
42
32
30
33
31
31
37
25
23
18
24
28
22
23
11
18
9
12
1
2
-5
-1
0
-16
-24
-20
-31
-32
-50
-50
-40
-35
-34
-25
-15
-8
-13
-8
-10
-14
-12
-8
-17
-17
-27
-18
-15
-13
-4
14
34
33
35
6
-25
-90
-174
-276
-382
-462
-515
-477
-386
-281
-169
-85
-35
0
10
13
22
19
23
13
11
18
15
18
17
10
18
20
7
7
5
2
7
8
-5
0
-9
-8
-13
-14
-13
-4
0
1
-12
-16
-9
-13
-12
-21
-28
-30
-34
-29
-26
-34
-43
-48
-45
-44
-40
-32
-29
-35
-44
-38
-48
-40
-43
-45
-40
-45
-40
-49
-44
-48
-54
-37
-30
-28
-20
-22
-28
-26
-25
-14
-18
-15
-20
-12
-11
-14
-20
-15
-11
-15
-10
3
-8
-10
-18
-17
-18
-16
-23
-19
-22
-23
-29
-21
-23
-21
-9
-13
-13
-12
-18
-25
-25
-29
-25
-18
-26
-22
-24
-37
-30
-43
-33
-31
-39
-37
-32
-25
-26
-33
-31
-39
-30
-32
-43
-37
-44
-46
-45
-54
-47
-42
-49
-64
-62
-76
-84
-95
-100
-92
-95
-89
-79
-72
-71
-63
-51
-48
-48
-56
-68
-75
-83
-94
-92
-108
-102
-117
-121
-118
-98
-88
-68
-81
-99
-135
-191
-264
-352
-455
-528
-566
-543
-457
-347
-245
-152
-94
-58
-42
-32
-25
-27
-18
-19
-14
-7
-5
-1
-13
-8
-5
5
-11
-13
-12
-6
-10
-12
-15
-13
-18
-25
-28
-28
-22
-26
-17
-15
-23
-13
-11
-15
-16
-13
-21
-24
-26
-31
-24
-31
-27
-34
-34
-36
-28
-27
-20
-20
-17
-18
-11
-17
-18
-19
-15
-24
-25
-25
-23
-22
-16
-5
5
5
11
13
19
31
34
37
41
53
54
52
61
63
64
65
70
74
71
76
67
71
67
62
68
69
68
65
61
61
52
55
50
51
58
50
48
58
53
56
53
47
57
57
44
38
35
37
44
46
45
44
53
52
50
41
39
38
36
33
28
26
25
29
19
23
26
27
26
28
24
17
11
15
1
-3
0
-7
-6
-14
0
-5
12
7
13
22
22
24
24
22
23
20
22
26
21
18
25
22
22
36
57
62
57
32
-13
-70
-148
-237
-332
-415
-450
-409
-310
-208
-117
-49
-8
34
50
47
45
48
50
57
56
48
52
58
48
58
46
49
45
36
33
35
32
37
37
32
22
20
24
19
17
10
9
5
8
9
4
7
3
1
0
-9
-10
-9
-5
-15
-15
-17
-10
-8
-11
-9
-16
-17
-25
-21
-21
-19
-22
-23
-35
-31
-28
-29
-22
-28
-19
-15
-17
-10
-17
-13
-13
1
-1
-2
5
-1
-7
7
-5
-8
-12
-11
-11
-11
-15
-13
-13
-8
-7
-8
-13
-15
-8
-7
-14
-18
-13
-15
-19
-22
-16
-20
-17
-17
-16
-10
-8
-11
-10
-11
-12
-21
-15
-19
-10
-16
-14
-9
-18
-20
-9
-11
-15
-16
-8
-10
-17
-9
-14
-17
-27
-24
-32
-38
-41
-53
-52
-51
-51
-62
-62
-57
-49
-49
-32
-25
-25
-19
-26
-19
-21
-17
-17
-21
-21
-22
-18
-18
-6
-5
9
33
40
20
-12
-75
-141
-232
-335
-423
-477
-472
-396
-295
-190
-107
-49
-6
9
20
25
27
41
31
43
44
45
38
35
37
26
31
23
32
28
26
17
22
23
23
15
8
16
11
7
-4
-7
4
-4
0
-12
2
-4
-13
-20
-16
-19
-23
-24
-16
-27
-25
-24
-22
-32
-32
-35
-34
-24
-28
-38
-31
-25
-27
-21
-26
-25
-26
-22
-17
-22
-17
-15
-17
-17
-22
-10
-10
-6
-9
-13
-9
-5
-4
4
-5
-16
-11
-16
-21
-17
-10
-11
-8
-17
-13
-16
-13
-13
-13
-14
-13
-17
-12
-13
-24
-16
-15
-19
-18
-27
-24
-20
-16
-22
-25
-22
-12
-17
-15
-17
-22
-18
-17
-17
-17
-21
-20
-31
-34
-35
-30
-36
-36
-42
-50
-56
-61
-68
-69
-76
-78
-69
-64
-68
-57
-42
-39
-39
-41
-38
-33
-28
-34
-29
-27
-34
-26
-31
-33
-31
-31
-19
-7
6
8
-12
-53
-101
-173
-273
-365
-441
-478
-460
-382
-254
-182
-104
-47
-14
7
11
8
13
14
16
16
13
21
12
12
13
15
16
15
20
11
16
15
12
8
4
3
3
2
-7
-5
-1
-7
-5
-12
-7
-6
-14
-16
-11
-22
-16
-23
-24
-15
-20
-29
-26
-21
-27
-29
-35
-27
-29
-33
-22
-32
-35
-32
-31
-32
-34
-39
-32
-28
-30
-23
-22
-10
-17
-16
-19
-8
-7
0
0
9
12
13
2
2
3
5
1
-3
5
4
4
3
6
6
8
8
8
9
-1
-2
6
0
-2
4
8
3
-2
3
1
4
-4
-9
-2
-4
-8
-4
-9
-7
-5
0
8
10
2
8
8
-6
1
-11
-7
-10
-5
-14
-21
-30
-29
-37
-35
-44
-40
-40
-33
-30
-14
-15
-8
-9
2
-5
-7
-2
-4
4
-2
-1
1
-8
-5
-4
13
9
34
41
49
35
-11
-62
-137
-246
-341
-424
-483
-456
-368
-262
-162
-71
-13
17
29
35
40
37
54
53
48
46
48
50
49
42
39
42
43
42
39
29
29
21
25
19
24
21
16
15
21
19
12
12
4
5
-4
-2
-2
-5
-3
-14
-7
-10
-5
-12
-10
-9
-14
-13
-5
-10
-6
-13
-7
-2
-5
-12
-15
-10
-11
-25
-25
-25
-21
-20
-16
-22
-13
-15
-11
-15
-7
-11
-8
-6
-1
4
-7
8
6
-2
10
3
6
5
-2
5
-1
6
2
-5
7
4
-5
-13
-2
1
-14
-4
-4
-6
-6
0
2
-3
-9
-8
-1
-4
-10
-9
-4
-12
0
-9
-10
-1
-7
-4
-14
-13
-11
-14
-21
-15
-27
-23
-20
-18
-26
-28
-20
-18
-25
-18
-26
-22
-21
-28
-27
-31
-23
-20
-27
-25
-22
-33
-29
-31
-35
-36
-43
-54
-58
-58
-63
-65
-62
-55
-48
-41
-28
-25
-23
-20
-29
-17
-22
-16
-24
-21
-25
-23
-23
-19
-5
19
31
34
1
-41
-98
-185
-274
-368
-462
-506
-471
-382
-272
-162
-84
-22
-5
14
24
26
39
34
43
40
44
39
49
36
37
40
45
42
39
27
27
34
21
24
11
15
13
15
11
11
15
8
4
10
7
-4
-4
-6
-7
-10
-14
-16
-9
-12
-25
-25
-17
-17
-17
-26
-23
-23
-20
-21
-24
-29
-24
-20
-16
-17
-21
-25
-33
-28
-24
-19
-24
-18
-13
-15
-12
2
6
11
4
1
1
2
2
2
7
8
4
-2
-5
-1
0
8
-5
-4
-3
-5
-1
1
-4
0
-2
0
4
3
-7
-7
-6
5
4
5
0
2
2
8
8
5
3
2
-7
4
-4
1
-1
-9
-14
-8
-10
-12
-15
-12
-12
-16
-15
-10
-8
-15
-8
-15
-17
-12
-11
-14
-17
-25
-20
-25
-17
-18
-7
-11
-20
-23
-35
-40
-47
-59
-48
-52
-52
-58
-56
-50
-35
-37
-24
-22
-24
-14
-22
-17
-15
-22
-12
-17
-15
-10
-15
-14
-4
7
25
41
44
20
-25
-92
-171
-259
-354
-437
-480
-458
-368
-267
-168
-86
-29
9
25
33
35
50
46
58
58
66
61
55
50
57
49
51
55
43
44
41
38
34
27
27
26
27
32
21
18
7
9
6
2
-13
-11
-15
-23
-19
-22
-16
-20
-22
-26
-31
-35
-31
-32
-42
-35
-34
-30
-39
-41
-35
-33
-32
-45
-40
-38
-42
-32
-41
-49
-37
-29
-21
-18
-15
-8
-12
-16
-8
-8
-7
7
7
2
-3
-4
8
3
2
-6
-9
-6
1
-9
0
-6
-12
-3
-3
-10
-5
0
2
-5
1
-7
-8
-6
-7
-2
-10
3
-1
5
6
0
-7
0
1
2
-4
-4
-1
-3
-3
2
7
-1
4
4
10
13
7
2
4
-5
-5
2
-1
-4
-7
3
0
-11
-17
-12
-17
-16
-16
-30
-41
-47
-51
-54
-49
-55
-48
-49
-39
-27
-23
-20
-18
-7
-17
-17
-7
-11
-11
-16
-22
-9
-14
-18
-12
3
20
39
41
23
-8
-65
-141
-233
-333
-417
-477
-473
-397
-297
-197
-95
-39
3
22
32
39
32
29
33
33
43
45
43
41
41
43
43
44
42
38
35
34
35
32
35
28
34
29
25
11
21
18
11
17
9
17
8
11
13
3
4
3
1
-8
-14
-3
-4
-12
-20
-20
-17
-16
-19
-10
-18
-11
-17
-12
-13
-15
-15
-17
-11
-14
-25
-14
-20
-20
-11
-15
-12
-9
-4
2
6
5
10
4
8
1
14
11
6
13
17
25
30
28
22
29
26
21
18
9
9
12
9
13
7
11
19
30
28
34
33
33
33
42
34
41
47
49
45
45
40
39
43
34
28
34
29
29
32
33
36
32
33
32
25
27
21
23
17
20
25
17
22
16
16
14
17
13
9
8
14
9
6
12
9
4
8
8
2
6
-6
-1
-9
6
1
-4
-5
-9
-4
-9
-21
-10
-16
-15
-20
-19
-23
-23
-17
-19
-18
-26
-23
-27
-32
-37
-29
-36
-39
-50
-63
-64
-68
-70
-66
-53
-50
-40
-38
-34
-26
-32
-26
-23
-24
-25
-25
-20
-21
-20
-31
-30
-12
-7
2
22
27
4
-31
-80
-166
-243
-351
-453
-508
-502
-432
-326
-218
-133
-73
-33
-8
7
9
10
22
34
31
30
23
33
26
27
24
22
29
20
19
14
13
16
16
8
11
3
0
10
5
6
-9
-13
-8
-13
-9
-20
-12
-20
-20
-21
-32
-31
-23
-29
-35
-39
-34
-45
-47
-46
-43
-44
-45
-41
-44
-51
-47
-47
-52
-48
-57
-47
-46
-49
-43
-41
-45
-42
-51
-44
-44
-39
-34
-39
-39
-38
-41
-38
-33
-34
-33
-24
-27
-16
-24
-34
-31
-34
-32
-25
-18
-25
-28
-36
-37
-30
-31
-26
-41
-42
-37
-35
-34
-32
-40
-29
-33
-39
-40
-38
-40
-45
-40
-34
-40
-35
-35
-36
-43
-40
-47
-42
-35
-37
-31
-38
-29
-35
-34
-39
-30
-33
-40
-45
-44
-37
-40
-40
-50
-69
-97
-113
-121
-124
-126
-131
-131
-130
-126
-119
-114
-112
-110
-101
-95
-87
-91
-96
-85
-86
-81
-78
-65
-53
-47
-45
-34
-34
-32
-26
-21
-17
-17
-10
-14
-16
-17
-4
-4
-11
-17
-12
-12
-21
-20
-25
-33
-33
-47
-40
-37
-37
-30
-25
-27
-16
-7
-5
-6
2
-6
0
-12
4
3
-8
-6
5
4
3
12
18
32
48
53
42
5
-43
-113
-207
-307
-407
-463
-462
-397
-282
-177
-82
-28
19
37
44
51
52
56
56
43
50
57
45
53
60
55
49
44
47
47
40
40
38
36
34
27
25
20
29
28
22
15
12
19
7
14
7
11
10
6
3
5
5
-4
-4
-13
-16
-16
-12
-9
-6
-12
-15
-18
-9
-8
-19
-19
-16
-24
-25
-20
-16
-15
-17
-21
-15
-10
-18
-10
-7
-6
-7
-4
-8
-2
-2
4
4
5
3
12
9
3
4
8
8
6
9
8
8
3
6
-7
3
0
-2
-5
-6
2
0
-8
0
-5
-1
-8
-3
1
-4
-8
3
3
3
7
5
0
4
-2
3
-4
-4
1
-5
0
1
5
-4
-3
-8
-3
-3
-4
-11
-12
-12
-7
-5
-15
-14
-11
-10
-19
-16
-16
-17
-17
-20
-18
-15
-13
-19
-13
-16
-19
-23
-11
-17
-19
-19
-22
-22
-19
-19
-15
-14
-20
-8
-11
-17
-13
-6
-9
-14
-18
-19
-11
-15
-19
-16
-21
-22
-22
-20
-12
-16
-17
-27
-25
-21
-30
-20
-23
-29
-38
-37
-40
-51
-59
-63
-69
-70
-68
-65
-64
-58
-39
-37
-27
-29
-16
-15
-23
-15
-22
-21
-17
-24
-21
-28
-18
-19
-12
0
10
35
30
16
-29
-91
-172
-272
-375
-468
-515
-485
-400
-293
-178
-94
-36
3
10
24
28
33
41
40
44
41
42
47
42
40
42
50
50
47
46
33
36
33
36
28
24
22
19
30
23
14
9
5
6
6
10
11
4
8
3
-7
2
-8
-6
-12
-12
-11
-11
-14
-15
-23
-12
-9
-13
-13
-9
-5
-8
-7
-11
-9
-11
-11
-18
-17
-11
-10
-13
-7
-7
-6
-10
-1
5
-4
1
-5
6
-5
1
11
7
13
15
13
11
7
7
3
11
8
15
14
14
10
-5
4
8
3
3
1
8
9
-5
4
3
-8
0
-2
-3
-10
-3
1
4
5
-4
1
8
8
9
12
9
10
10
7
8
-1
1
2
8
4
7
6
2
-3
-7
-2
-11
-2
-6
-14
-17
-16
-14
-10
-16
-15
-11
-4
-10
-8
-8
-13
-13
-3
-6
-11
-11
-6
-5
-11
-11
-8
-6
-6
-15
4
-8
-12
-9
-4
-13
-11
-10
-15
-8
-2
-2
-5
-8
0
-2
3
-5
-4
3
-5
1
-7
-5
-12
-15
-8
-6
-18
-21
-18
-23
-23
-26
-37
-46
-50
-48
-63
-57
-53
-53
-44
-45
-30
-34
-27
-21
-18
-20
-22
-20
-29
-26
-25
-24
-21
-28
-22
-16
7
13
21
3
-33
-84
-169
-250
-355
-464
-524
-512
-446
-332
-232
-131
-70
-27
-8
13
16
29
35
35
42
41
36
40
34
38
33
26
19
26
18
13
23
12
11
17
11
14
20
5
8
10
9
9
-5
-8
-5
-9
-8
-11
-13
-21
-19
-15
-26
-29
-31
-32
-27
-26
-33
-33
-37
-43
-48
-37
-42
-40
-50
-49
-54
-41
-43
-40
-44
-37
-43
-36
-34
-30
-39
-33
-37
-30
-27
-23
-18
-18
-12
-14
-15
-16
-13
-22
-20
-12
-19
-24
-17
-17
-16
-16
-13
-17
-16
-23
-18
-13
-22
-25
-20
-21
-14
-16
-23
-9
-10
-8
-6
-9
4
3
8
-3
8
5
7
6
4
10
7
8
8
11
7
7
8
4
4
6
10
7
13
2
-3
-1
2
6
7
-2
-6
3
3
12
5
5
0
-3
9
-2
4
3
12
12
13
6
1
4
5
3
8
12
11
19
14
11
21
16
17
21
9
11
9
18
20
14
24
13
25
20
11
11
17
23
22
20
8
16
7
0
-3
-2
-10
-12
-9
4
24
30
38
42
43
38
42
46
51
48
49
64
67
68
75
81
88
103
133
143
135
112
57
-15
-99
-200
-294
-363
-360
-289
-184
-73
9
82
126
146
162
161
172
174
174
169
167
164
160
159
163
158
152
155
157
145
132
133
136
126
120
115
111
101
93
96
89
76
80
85
78
67
63
59
65
50
37
33
26
20
21
17
22
12
5
8
-3
-11
-21
-18
-24
-21
-20
-31
-36
-35
-36
-39
-42
-51
-51
-43
-50
-52
-56
-48
-47
-37
-42
-37
-31
-35
-31
-38
-32
-39
-39
-34
-39
-24
-33
-34
-35
-35
-45
-37
-45
-53
-49
-52
-56
-61
-54
-72
-64
-71
-66
-73
-74
-73
-73
-68
-64
-65
-69
-74
-72
-71
-72
-74
-83
-75
-76
-76
-75
-67
-72
-77
-70
-79
-73
-63
-56
-65
-58
-64
-60
-71
-70
-59
-58
-54
-61
-56
-49
-53
-64
-62
-58
-74
-73
-63
-69
-69
-67
-65
-60
-56
-57
-57
-52
-64
-57
-65
-63
-58
-65
-65
-67
-67
-73
-76
-76
-86
-98
-101
-107
-119
-117
-127
-127
-118
-116
-105
-99
-104
-103
-100
-104
-101
-96
-104
-108
-100
-103
-102
-106
-118
-112
-106
-89
-67
-62
-84
-127
-189
-270
-359
-469
-567
-627
-609
-529
-417
-308
-222
-151
-122
-105
-90
-77
-74
-88
-78
-74
-69
-73
-81
-74
-89
-85
-78
-72
-87
-87
-87
-85
-80
-85
-92
-97
-96
-103
-100
-83
-89
-85
-89
-93
-101
-101
-114
-116
-111
-94
-93
-90
-95
-100
-98
-94
-103
-102
-93
-86
-86
-77
-75
-78
-88
-81
-74
-83
-80
-78
-80
-91
-80
-79
-69
-57
-59
-48
-38
-37
-36
-45
-39
-35
-23
-14
-13
-10
-18
-23
-21
-11
3
-1
3
3
-4
0
8
7
8
-5
-4
-3
-5
-7
-10
-8
1
10
13
13
13
20
16
14
10
14
22
18
13
7
0
-9
-14
-21
-45
-53
-60
-68
-73
-69
-70
-67
-54
-61
-59
-45
-45
-49
-41
-31
-30
-13
-18
-8
-8
-8
-8
-8
-12
-16
-9
-9
-7
2
8
6
-6
-10
-11
-9
2
-18
-32
-33
-31
-35
-37
-44
-40
-31
-16
-13
-7
-4
1
7
7
12
5
8
6
1
-3
4
12
3
3
12
23
33
43
37
17
-29
-96
-186
-268
-375
-463
-504
-466
-373
-263
-163
-75
-14
11
17
29
36
39
48
58
64
63
57
63
69
73
74
68
49
46
52
45
37
35
46
45
35
28
32
33
27
27
34
25
33
26
23
26
23
21
19
29
19
16
15
21
20
14
16
13
16
14
17
12
3
12
16
16
5
-1
7
8
7
7
-5
5
9
16
19
23
27
29
34
25
26
27
40
37
35
31
32
40
28
23
25
33
38
31
24
23
16
26
22
20
13
22
17
18
23
24
24
28
28
26
21
20
22
25
19
16
23
23
29
19
19
21
17
28
17
20
28
19
17
13
15
19
22
7
7
13
17
29
30
21
17
19
12
13
17
7
-10
-17
-17
-23
-26
-23
-25
-24
-23
-9
5
11
16
18
13
19
8
7
16
16
7
7
8
8
3
5
16
35
49
53
44
9
-69
-155
-243
-328
-406
-446
-417
-345
-237
-141
-73
-23
3
31
48
44
56
49
51
52
51
53
50
42
52
35
42
40
38
33
37
26
32
26
28
22
16
16
20
27
34
46
44
49
36
32
31
26
26
35
31
35
40
35
33
27
21
25
20
26
23
19
22
11
13
12
10
7
12
6
12
10
12
19
16
21
22
23
35
39
42
46
54
59
54
51
53
65
64
56
59
51
61
54
51
50
53
54
59
51
45
46
52
41
38
41
39
23
26
27
18
10
16
23
20
24
18
17
24
19
23
26
19
22
15
14
9
3
12
19
23
17
22
16
19
21
14
-4
-1
4
-8
-5
2
8
-7
-2
-4
-6
-6
-7
-13
-14
-21
-15
-13
-22
-21
-30
-43
-45
-53
-61
-60
-61
-34
-36
-38
-35
-26
-20
-20
-23
-15
-12
-12
-21
-20
-23
-22
-17
-14
-15
-12
3
26
22
11
-33
-81
-141
-230
-352
-444
-506
-514
-458
-365
-253
-154
-80
-33
0
9
20
19
25
27
18
25
26
25
29
34
34
30
25
9
14
25
19
15
22
27
17
11
9
6
-5
2
2
-11
-13
-13
-6
3
-6
-7
-18
-15
-16
-15
-27
-24
-21
-15
-27
-36
-30
-34
-44
-45
-44
-36
-36
-41
-36
-43
-35
-29
-17
-21
-32
-33
-21
-15
-17
-17
-10
-7
-7
-7
-7
-6
4
8
10
12
18
9
12
9
13
6
1
2
1
3
-9
-2
1
-17
-15
-8
-14
-7
-11
-11
-9
-7
-14
-15
-25
-22
-12
-15
-21
-17
-18
-12
-20
-22
-18
-16
-22
-17
-14
-18
-14
-17
-6
-8
-23
-17
-17
-29
-23
-20
-13
-21
-21
-33
-27
-27
-24
-32
-26
-38
-28
-20
-28
-32
-35
-32
-34
-39
-38
-39
-28
-29
-32
-36
-36
-33
-33
-35
-36
-39
-36
-34
-37
-37
-34
-43
-31
-26
-39
-24
-29
-27
-44
-54
-65
-74
-73
-80
-88
-91
-75
-61
-60
-53
-47
-42
-39
-39
-40
-47
-39
-35
-27
-29
-34
-35
-40
-36
-30
-13
14
24
12
-16
-68
-139
-220
-321
-421
-505
-532
-485
-389
-272
-172
-106
-49
-14
-1
9
29
32
28
28
27
28
32
32
32
34
32
37
27
18
12
7
7
-5
4
7
3
8
3
-12
-13
-15
-4
-11
-9
-12
-10
-16
-19
-27
-25
-24
-18
-10
-14
-31
-23
-26
-26
-33
-36
-41
-40
-43
-42
-40
-31
-37
-31
-34
-45
-47
-38
-37
-33
-38
-34
-33
-20
-19
-18
-18
-25
-18
-12
-12
-8
-3
-1
0
-6
6
1
1
-4
-5
-19
-3
-10
-17
-9
-11
-11
-15
-13
-15
-1
-15
-5
-13
-20
-22
-16
-15
-22
-25
-16
-8
-15
-25
-22
-18
-16
-13
-14
-17
-21
-15
-24
-28
-25
-15
-11
-14
-19
-26
-25
-25
-31
-25
-24
-20
-19
-21
-12
-19
-22
-24
-28
-21
-21
-16
-22
-19
-15
-22
-13
-16
-14
-18
-25
-20
-8
-22
-20
-21
-17
-5
-10
-8
-16
-24
-25
-29
-32
-31
-31
-22
-20
-19
-30
-37
-34
-23
-27
-24
-21
-25
-20
-20
-21
-22
-24
-21
-23
-24
-21
-19
-23
-14
-23
-15
-15
-18
-25
-28
-30
-30
-22
-30
-30
-33
-38
-37
-34
-35
-32
-14
-15
-18
-14
-6
5
6
1
-7
-8
-4
9
8
1
-14
-13
-5
18
28
45
67
49
20
-31
-104
-198
-301
-411
-488
-500
-430
-324
-223
-132
-63
-10
20
37
47
55
55
59
54
55
62
61
59
55
56
52
49
53
50
42
39
42
47
51
40
36
36
26
23
23
20
24
23
18
13
14
26
19
20
21
17
16
8
5
-3
-4
4
7
-6
-11
-11
-4
0
-8
-12
-13
-4
-4
-7
-16
-22
-17
-13
-14
-17
-24
-10
-13
-9
-4
-1
12
16
6
14
12
20
22
16
17
19
18
21
20
12
11
11
22
17
14
16
16
16
11
2
9
9
14
10
10
6
-6
-3
4
8
8
-2
-6
4
8
2
9
4
3
0
0
7
8
6
5
6
4
-8
1
7
-2
6
-4
-4
-2
-3
-2
-1
-6
-16
-8
-11
-6
-6
-14
-14
-9
-11
-13
-16
-7
-3
-7
-9
-13
-9
-8
-15
-19
-11
-23
-19
-14
-26
-22
-16
-21
-25
-31
-33
-16
-14
-19
-13
-24
-34
-38
-31
-31
-21
-27
-31
-34
-43
-37
-35
-27
-29
-28
-32
-38
-34
-31
-36
-31
-34
-24
-26
-26
-32
-30
-24
-24
-22
-24
-31
-29
-26
-24
-27
-14
-12
-17
-28
-28
-45
-40
-43
-53
-55
-54
-52
-48
-45
-40
-38
-32
-34
-33
-31
-20
-26
-17
-24
-27
-30
-31
-31
-26
-33
-24
-15
-4
13
28
17
-10
-57
-131
-219
-328
-436
-518
-563
-515
-422
-306
-208
-131
-75
-34
-11
-3
0
16
17
17
30
28
30
15
15
18
18
20
24
16
12
10
16
15
19
21
15
4
3
1
-2
0
-16
-9
-6
-2
-11
-21
-22
-25
-23
-19
-32
-33
-23
-25
-20
-19
-20
-21
-20
-26
-33
-26
-28
-24
-27
-30
-37
-30
-41
-49
-48
-31
-25
-32
-26
-24
-21
-14
-7
-13
-11
-10
-9
3
9
10
7
5
3
8
-1
3
20
14
12
20
10
2
8
1
-2
-2
-4
3
5
7
1
9
3
4
2
-9
-11
-8
-8
-8
-12
0
-9
0
3
-8
-5
0
-9
-13
-12
1
-7
-6
-13
-16
-11
-8
-15
-12
-4
-4
-5
-9
-10
-25
-20
-13
-11
-12
-11
-20
-19
-25
-18
-27
-20
-25
-22
-28
-25
-24
-22
-21
-23
-29
-25
-21
-24
-24
-25
-30
-32
-30
-38
-32
-26
-28
-20
-23
-18
-17
-21
-33
-37
-23
-27
-29
-21
-26
-36
-39
-44
-45
-34
-33
-32
-28
-22
-24
-21
-30
-24
-31
-25
-27
-23
-29
-30
-36
-29
-26
-29
-32
-31
-28
-31
-32
-37
-38
-44
-42
-36
-37
-35
-38
-32
-32
-43
-46
-38
-30
-33
-42
-44
-53
-60
-67
-58
-58
-50
-41
-44
-47
-40
-35
-37
-34
-23
-27
-30
-24
-23
-25
-21
-20
-29
-29
-24
-24
-17
4
23
24
19
-18
-70
-149
-246
-367
-460
-529
-531
-470
-362
-250
-141
-69
-29
6
13
26
35
48
42
48
45
42
47
45
40
46
39
36
33
30
35
36
26
32
35
33
27
28
30
19
13
14
12
4
1
15
12
11
9
-3
8
0
9
0
8
4
-3
-7
-9
-12
-12
-21
-25
-27
-26
-26
-26
-17
-17
-18
-29
-17
-29
-16
-17
-24
-18
-18
-14
-15
-8
2
10
1
2
11
20
19
26
17
33
33
29
33
35
34
28
31
19
23
20
24
18
13
12
16
13
16
11
17
13
20
15
8
11
10
11
7
-3
-2
5
10
8
2
6
11
13
19
18
5
9
8
6
12
1
8
9
12
5
-6
-5
3
9
4
9
13
16
9
5
3
-1
7
9
9
-1
1
1
2
-7
-11
0
-13
-11
-8
-7
-3
-4
-7
-14
-9
-6
-18
-23
-24
-17
-20
-10
-3
-11
-8
-14
-13
-20
-21
-22
-16
-15
-16
-28
-23
-14
-10
-4
-9
-20
-13
-23
-22
-19
-11
-13
-14
-17
-12
-13
-5
0
-6
-16
-10
-8
-10
-15
-18
-17
-17
-13
-19
-25
-25
-20
-22
-30
-43
-41
-48
-47
-42
-31
-27
-24
-21
-23
-16
-15
-11
-11
-16
-11
-11
-16
-17
-18
-25
-19
-12
-3
3
24
31
28
11
-44
-99
-182
-279
-386
-488
-521
-500
-412
-290
-192
-105
-51
-5
19
17
28
34
44
49
48
42
53
48
51
50
54
40
37
33
28
40
24
25
23
22
34
30
24
31
32
25
25
32
24
17
21
22
17
16
7
8
5
-1
-7
-6
-5
6
-10
-16
-17
-15
-22
-13
-16
-27
-27
-21
-22
-17
-22
-34
-21
-17
-16
-8
-4
-7
-13
-5
6
-4
2
4
12
19
14
13
18
21
18
24
26
30
39
30
30
26
27
25
18
17
28
28
29
27
24
5
9
11
8
8
4
3
4
3
8
7
5
7
7
-1
-10
-2
2
8
-4
-1
-11
-6
-3
-12
-7
-10
8
-2
-2
-4
-7
-10
-10
-4
-8
-8
-12
-15
-13
-11
-4
-3
-13
-22
-15
-8
-10
-11
-15
-24
-27
-20
-29
-19
-23
-18
-19
-22
-17
-22
-13
-17
-26
-23
-27
-27
-25
-27
-36
-21
-22
-27
-29
-31
-22
-21
-25
-30
-36
-26
-18
-33
-36
-42
-41
-36
-27
-34
-35
-37
-41
-32
-40
-41
-36
-43
-36
-41
-36
-36
-30
-36
-31
-32
-42
-41
-27
-34
-43
-38
-37
-37
-41
-39
-32
-29
-29
-38
-32
-36
-35
-33
-28
-35
-37
-33
-40
-58
-61
-62
-60
-60
-56
-57
-37
-43
-39
-29
-40
-23
-26
-31
-24
-33
-25
-24
-25
-28
-27
-24
-28
-13
-6
13
25
20
-9
-53
-113
-194
-300
-416
-497
-553
-518
-436
-317
-207
-125
-58
-19
-5
5
12
26
34
43
45
49
37
39
41
49
41
40
38
28
37
34
28
37
41
33
28
24
12
23
18
14
19
15
14
8
9
6
0
8
-5
-2
-7
0
4
-7
-7
-12
-10
-10
-10
-9
-16
-15
-16
-29
-32
-30
-29
-31
-24
-24
-27
-32
-23
-14
-17
-22
-17
-11
-11
-3
-8
-3
-5
-3
-1
6
12
7
17
19
13
11
18
19
18
9
13
16
15
19
9
5
12
4
9
4
-5
-2
-1
-3
4
4
12
5
3
-1
12
11
5
-7
0
-3
4
2
-5
-7
-3
-2
-5
-9
0
-7
-12
-17
-7
-10
-14
-6
-11
-16
-3
-8
-8
-9
-14
-7
-7
-3
-18
-10
-18
-19
-16
-12
-9
-13
-13
-17
-21
-21
-28
-25
-15
-24
-24
-22
-19
-14
-21
-21
-24
-18
-9
-21
-17
-24
-28
-24
-25
-23
-17
-20
-30
-26
-20
-32
-29
-26
-20
-34
-34
-32
-28
-30
-34
-34
-28
-37
-39
-41
-38
-41
-29
-38
-41
-36
-29
-22
-21
-30
-35
-36
-34
-39
-36
-33
-35
-31
-36
-42
-35
-29
-41
-34
-32
-41
-28
-29
-29
-33
-37
-35
-41
-51
-60
-61
-68
-51
-56
-52
-48
-43
-42
-43
-33
-37
-37
-40
-38
-44
-36
-38
-29
-33
-31
-29
-22
-15
-2
20
19
3
-37
-101
-178
-272
-374
-469
-544
-548
-472
-357
-254
-151
-90
-38
-14
3
24
16
27
30
40
41
43
49
51
53
44
45
38
38
32
29
33
22
30
30
24
18
16
15
10
7
-6
-13
1
-5
-3
7
1
0
7
2
-5
-11
-10
-13
-25
-25
-29
-21
-22
-19
-23
-31
-26
-28
-28
-37
-35
-36
-38
-27
-32
-29
-38
-32
-28
-16
-31
-32
-19
-13
-11
-5
5
15
12
8
4
7
3
14
20
12
20
18
20
9
6
4
10
4
7
8
12
9
0
-1
-4
0
12
6
12
12
17
6
-1
-2
10
13
16
12
9
5
3
4
2
-4
7
7
5
-3
-3
-1
-6
-6
-1
-10
-4
-10
-12
-15
-6
-17
-4
0
-7
-16
-11
-3
2
-5
-10
-13
-8
3
-5
-6
-3
-9
-9
-4
-5
-6
-8
-11
0
-3
-5
-9
-7
-10
-8
-14
-8
-14
-8
-10
-8
-14
-15
-22
-28
-30
-34
-24
-23
-25
-19
-26
-24
-25
-19
-18
-22
-17
-19
-35
-25
-31
-30
-31
-37
-26
-23
-26
-31
-21
-20
-25
-22
-27
-37
-40
-35
-36
-39
-46
-53
-54
-51
-59
-58
-60
-57
-38
-38
-31
-29
-28
-27
-16
-18
-30
-27
-14
-19
-17
-17
-10
-13
-11
-10
-2
24
39
35
9
-27
-97
-164
-271
-373
-469
-508
-500
-408
-286
-193
-111
-40
5
19
31
36
50
44
47
46
45
49
44
44
43
48
42
37
42
31
25
27
30
31
15
21
14
16
20
19
15
14
10
4
3
10
7
10
-7
-6
5
2
6
-4
-6
-13
-21
-18
-14
-14
-14
-12
-20
-16
-20
-17
-21
-26
-30
-31
-39
-36
-37
-28
-36
-22
-21
-18
-10
1
0
10
15
12
6
3
8
20
24
31
26
27
22
23
17
27
24
13
11
17
23
18
24
28
18
13
13
16
10
8
7
8
5
13
7
18
11
12
6
16
21
21
16
9
7
5
8
3
4
7
6
-3
4
8
5
-6
-8
3
-3
-2
2
13
5
-5
-1
-6
-6
-1
-3
-11
-15
-11
-8
-17
-5
-8
-2
-10
-12
0
7
4
-6
-21
-23
-19
-15
-15
-13
-16
-28
-15
-21
-20
-9
-13
-14
-15
-24
-28
-18
-21
-23
-11
-30
-20
-25
-24
-20
-21
-16
-16
-19
-16
-28
-29
-14
-28
-28
-15
-22
-20
-22
-22
-20
-30
-30
-36
-31
-16
-29
-35
-40
-44
-45
-50
-62
-60
-56
-45
-45
-40
-37
-39
-40
-29
-27
-32
-33
-23
-21
-16
-26
-32
-31
-25
-15
0
16
30
12
-16
-63
-126
-214
-313
-423
-515
-537
-495
-403
-299
-190
-104
-55
-20
0
16
27
40
35
41
40
39
44
38
40
47
42
46
42
44
41
25
31
25
24
24
21
24
24
26
17
11
9
8
9
10
-7
-4
-2
-1
-2
3
9
-5
-4
-7
-7
-9
-4
-3
-8
-19
-17
-15
-21
-29
-30
-25
-24
-25
-24
-28
-30
-32
-38
-30
-22
-26
-9
-11
2
4
1
5
10
11
15
5
16
15
12
16
11
13
16
23
23
22
27
16
9
10
3
12
10
5
12
4
11
4
0
-4
4
5
3
-1
4
4
-1
1
-7
-11
-2
-2
0
-1
-10
-14
-14
-18
-16
-13
-9
-9
-7
-1
-14
-14
-17
-18
-24
-22
-24
-19
-8
-17
-24
-34
-23
-28
-25
-14
-21
-16
-15
-23
-32
-26
-24
-16
-20
-16
-11
-16
-19
-25
-27
-24
-32
-27
-20
-25
-22
-15
-11
-12
-20
-34
-33
-38
-32
-38
-41
-29
-28
-34
-38
-40
-35
-28
-31
-24
-37
-34
-37
-33
-40
-35
-28
-35
-41
-38
-36
-39
-41
-39
-31
-36
-28
-39
-40
-46
-42
-42
-42
-49
-56
-67
-61
-69
-62
-58
-62
-52
-40
-42
-36
-42
-44
-44
-33
-40
-30
-33
-35
-42
-31
-36
-23
-5
4
4
4
-41
-85
-154
-255
-370
-472
-540
-548
-479
-383
-269
-163
-93
-46
-14
-3
3
19
19
33
24
31
35
35
33
36
35
26
26
25
28
42
30
25
11
16
10
19
15
22
26
20
11
-3
3
1
0
6
1
-3
-2
6
3
4
-9
-14
-21
-11
-22
-20
-18
-21
-24
-29
-27
-27
-25
-37
-40
-45
-40
-44
-41
-37
-37
-45
-42
-34
-29
-23
-22
-17
-8
-9
-12
-1
4
5
9
16
24
14
11
12
13
17
18
26
32
20
19
14
14
23
14
13
9
6
4
6
8
2
-2
0
12
4
3
5
4
-2
0
4
1
4
-3
5
4
6
3
-3
-3
6
-2
-9
-9
-6
-4
-5
-12
-3
-6
-11
-11
-8
-21
-8
-7
-3
-9
-5
-11
-10
-18
-18
-28
-28
-23
-23
-17
-17
-8
-10
-15
-12
-13
-24
-19
-19
-21
-11
-16
-15
-20
-17
-7
-16
-12
-16
-21
-18
-18
-4
-12
-16
-17
-16
-22
-23
-20
-21
-24
-23
-23
-33
-44
-42
-40
-45
-43
-49
-41
-40
-28
-16
-14
-18
-17
-6
-11
-8
-12
-11
-16
-23
-31
-12
-17
-13
-5
-8
11
32
32
18
-22
-72
-153
-256
-360
-454
-511
-494
-422
-308
-204
-118
-45
-17
9
14
26
35
40
41
39
41
49
43
44
37
45
43
40
32
35
32
32
22
26
27
25
18
0
11
7
9
5
12
14
5
11
17
7
4
-2
1
1
-3
-5
-4
-10
-13
-8
-6
-8
-15
-2
-10
-20
-28
-16
-19
-27
-28
-39
-30
-40
-37
-42
-28
-26
-22
-20
-16
-25
-20
-9
-6
1
4
16
17
21
26
21
35
32
31
25
24
28
24
30
31
26
31
24
26
21
22
21
22
13
5
11
18
21
16
13
11
8
7
10
19
19
17
14
10
21
18
23
15
18
15
3
4
6
12
3
6
10
16
12
0
3
-6
-4
-12
-5
-11
-1
-4
-6
-11
-16
-8
0
0
2
0
2
2
-5
-16
-8
-10
-20
-16
-15
-6
-6
-9
-9
-7
-16
-17
-3
-16
-22
-25
-22
-16
-15
-28
-17
-10
-14
-24
-21
-21
-21
-24
-32
-29
-21
-20
-30
-28
-32
-30
-37
-45
-49
-53
-53
-56
-65
-66
-58
-53
-48
-46
-38
-38
-33
-29
-34
-37
-32
-30
-21
-27
-31
-28
-23
-20
-11
-5
11
24
22
0
-47
-128
-201
-294
-404
-504
-550
-510
-425
-304
-195
-121
-54
-19
2
12
29
32
44
41
36
40
49
40
42
48
38
37
30
34
36
26
19
27
16
19
19
20
19
12
-5
-9
-5
2
3
1
-8
-2
-11
-10
-12
-5
-9
-12
-14
-21
-18
-23
-21
-28
-37
-33
-25
-30
-25
-27
-29
-32
-28
-28
-37
-38
-35
-29
-27
-29
-28
-24
-24
-13
-14
-15
-6
3
-1
1
9
9
11
21
16
12
17
15
13
7
9
11
16
10
8
9
16
11
12
-1
6
1
0
2
2
7
1
0
1
4
-8
0
8
4
-2
-2
-4
-7
-6
-1
-7
-3
-5
0
1
-15
-12
-4
-4
-11
-19
-14
-14
-5
-8
-21
-22
-16
-10
-19
-26
-29
-13
-14
-20
-19
-18
-25
-31
-37
-25
-19
-22
-20
-24
-25
-22
-22
-25
-26
-27
-24
-25
-24
-29
-19
-29
-26
-19
-26
-24
-22
-24
-22
-37
-41
-31
-29
-34
-31
-29
-31
-26
-23
-21
-24
-24
-22
-27
-31
-33
-35
-32
-41
-53
-55
-55
-54
-55
-66
-67
-57
-58
-56
-44
-47
-55
-52
-51
-46
-40
-43
-42
-53
-43
-48
-42
-43
-49
-37
-35
-25
-8
12
9
-8
-47
-119
-205
-290
-394
-474
-532
-516
-434
-322
-213
-121
-64
-15
6
15
23
28
37
40
27
35
41
34
36
39
40
44
25
27
28
28
36
25
25
22
23
17
18
11
22
20
15
11
16
14
11
5
4
4
14
11
1
-6
-11
-10
-4
-7
-12
-13
-16
-4
-13
-27
-30
-27
-31
-33
-36
-32
-31
-40
-30
-36
-32
-30
-26
-27
-25
-13
-17
-9
6
4
8
8
8
15
19
15
25
29
32
29
28
14
23
17
20
20
17
21
23
19
22
8
15
22
15
13
6
11
12
3
-5
1
2
2
12
6
-1
8
-3
0
4
10
4
4
-7
1
14
-1
12
12
18
9
7
8
14
23
16
10
8
-7
2
12
6
13
6
4
6
7
-2
2
-4
-10
-1
2
2
-2
11
3
7
10
1
-3
-10
-15
-6
-5
2
-6
-4
2
-6
-10
-8
-8
4
0
-13
-5
-4
-8
-7
-10
-16
-12
-12
-22
-21
-26
-28
-37
-38
-35
-30
-35
-28
-23
-20
-4
-5
-17
-22
-19
-15
-15
-20
-18
-20
-15
-17
-14
-18
-9
8
21
28
20
-25
-77
-148
-242
-344
-444
-525
-532
-475
-365
-257
-159
-86
-32
-15
3
11
14
22
21
27
35
36
33
34
33
38
31
22
17
18
17
22
21
21
12
9
5
3
4
6
9
5
12
8
7
7
-7
-6
-8
-14
-12
-12
-16
-21
-19
-19
-24
-28
-28
-27
-23
-20
-34
-36
-37
-41
-33
-30
-32
-40
-30
-33
-45
-51
-41
-35
-32
-32
-31
-21
-17
-4
-4
-2
-3
12
10
2
8
7
11
20
17
16
16
19
11
8
14
15
11
11
13
8
3
3
14
-2
4
1
1
-3
0
1
-7
-9
-5
-9
-9
-11
-6
-8
-9
-6
-7
-3
-7
-7
-5
-10
-6
1
0
-7
-7
2
-5
-14
-15
-7
-7
-5
-2
-13
-16
-12
-17
-20
-11
-14
-21
-13
-21
-14
-11
-21
-20
-29
-21
-26
-19
-31
-29
-32
-32
-24
-25
-30
-26
-23
-16
-21
-25
-34
-43
-37
-35
-29
-33
-35
-34
-25
-28
-26
-24
-27
-32
-40
-39
-40
-37
-32
-31
-35
-26
-35
-19
-26
-32
-37
-35
-45
-44
-46
-36
-36
-37
-48
-44
-57
-59
-58
-55
-54
-50
-52
-53
-53
-46
-37
-29
-29
-40
-36
-39
-29
-38
-33
-34
-26
-27
-25
-27
-6
6
25
15
-15
-76
-143
-219
-326
-436
-532
-561
-520
-415
-302
-197
-116
-59
-19
-7
6
32
31
43
40
51
43
57
60
51
53
50
47
50
43
38
32
36
35
29
26
15
20
13
18
10
16
16
14
4
15
3
6
-5
-3
1
-9
8
4
-6
-13
-14
-10
-15
-16
-18
-27
-17
-27
-27
-31
-22
-15
-16
-26
-22
-22
-22
-20
-27
-24
-22
-26
-16
-22
-17
-17
-11
-7
5
16
9
8
15
4
13
15
21
21
30
28
20
23
11
5
5
8
8
1
-1
-8
-5
1
0
3
0
0
1
-6
-7
-4
-7
6
-1
5
-3
-3
8
6
-5
-15
-15
-12
-8
-12
-7
-3
-5
-8
-6
-11
-10
-7
-2
-14
-8
-15
-7
-13
-7
-16
-7
-16
-12
-14
-21
-16
-21
-15
-20
-14
-15
-17
-13
-21
-19
-23
-18
-23
-27
-30
-25
-21
-30
-28
-27
-20
-21
-25
-16
-26
-29
-35
-24
-26
-12
-23
-19
-25
-24
-30
-23
-33
-32
-31
-38
-36
-28
-27
-21
-22
-20
-20
-26
-28
-24
-31
-22
-30
-33
-28
-32
-14
-15
-31
-43
-37
-38
-42
-39
-48
-54
-46
-48
-56
-62
-47
-50
-32
-37
-29
-28
-36
-30
-32
-27
-27
-35
-21
-17
-24
-26
-13
-24
-17
-9
16
31
29
-2
-45
-107
-182
-276
-390
-472
-521
-483
-401
-286
-197
-104
-43
11
25
33
29
30
44
42
42
42
40
48
38
43
48
46
43
43
35
35
40
22
19
17
23
15
13
18
8
4
1
4
6
-2
4
1
-5
3
-10
-3
2
-1
0
-15
-16
-19
-27
-26
-23
-25
-31
-35
-30
-26
-27
-33
-25
-27
-25
-30
-30
-30
-26
-22
-11
-13
-18
-5
-3
-7
7
2
9
3
12
17
34
27
27
21
33
28
23
30
32
18
28
27
28
31
35
27
16
14
20
24
20
25
23
19
16
12
4
17
10
21
12
1
8
11
10
2
-4
-2
13
12
9
1
1
-1
3
0
-3
-4
2
2
-7
0
-7
-8
7
-1
4
2
0
-3
-6
-5
-11
-10
-11
-13
-7
-17
-11
-8
-13
-11
-7
-15
-11
-10
-15
-7
-6
-2
-6
-6
-10
-5
-4
-3
-7
-17
-14
-17
-8
-15
-21
-23
-24
-14
-19
-15
-20
-11
-16
-13
-9
-15
-14
-12
-13
-11
-13
-6
-2
-18
-13
-13
-10
-9
-19
-18
-27
-25
-37
-41
-49
-56
-53
-54
-48
-45
-35
-38
-21
-26
-30
-39
-24
-20
-21
-15
-20
-17
-31
-27
-25
-25
-21
-15
-1
15
15
19
7
-33
-99
-184
-276
-384
-489
-555
-534
-459
-338
-222
-133
-75
-32
-11
16
24
32
28
47
43
37
45
38
48
37
47
48
45
42
33
29
25
33
30
31
22
24
18
30
30
22
17
19
11
15
6
10
-2
4
-1
6
3
5
-4
-7
-4
-19
-18
-14
-12
-17
-16
-21
-23
-23
-35
-38
-42
-40
-31
-40
-42
-30
-33
-28
-33
-37
-26
-25
-19
-12
-2
-5
5
6
8
3
21
19
26
29
28
24
29
21
26
14
19
20
15
9
13
11
11
24
18
18
3
3
1
1
0
6
5
-3
0
6
-3
0
-7
-1
-6
-10
-7
4
-9
-5
-8
-11
-5
-9
-12
-10
-8
-5
-11
-12
-12
0
-9
-8
-16
-17
-7
-7
-7
-10
-20
-19
-21
-22
-25
-17
-18
-22
-29
-26
-25
-22
-24
-27
-24
-17
-20
-32
-31
-35
-32
-29
-37
-36
-29
-30
-34
-37
-41
-32
-39
-33
-37
-31
-41
-28
-23
-29
-28
-33
-32
-44
-44
-42
-33
-28
-29
-33
-34
-33
-40
-42
-41
-46
-42
-37
-38
-39
-46
-36
-45
-34
-42
-42
-39
-35
-30
-36
-34
-35
-39
-43
-42
-50
-62
-56
-68
-78
-75
-67
-62
-56
-58
-49
-43
-48
-45
-48
-38
-37
-42
-34
-37
-34
-29
-29
-32
-39
-38
-25
-15
2
12
3
-21
-76
-146
-241
-342
-447
-516
-545
-491
-390
-283
-173
-101
-51
-15
9
24
18
19
33
39
44
45
41
41
40
33
36
46
39
35
34
29
35
32
28
23
23
23
16
19
15
20
5
4
9
15
7
3
1
-2
-6
-5
-5
-5
-4
-3
-12
-4
-9
-15
-15
-9
-4
-19
-16
-17
-13
-27
-36
-29
-32
-32
-29
-35
-34
-26
-26
-38
-33
-26
-15
-6
-7
-7
6
7
14
21
19
26
17
12
21
26
27
27
36
40
33
26
16
10
18
15
6
19
18
12
10
8
13
7
9
7
10
7
4
3
-5
1
-4
6
1
10
3
14
11
16
11
11
-1
-4
4
-3
7
9
-2
5
-7
-10
-7
0
4
-7
9
7
7
2
7
0
-9
-6
-14
-7
-4
-10
-3
-16
-16
-16
-17
-15
-19
-24
-26
-13
-12
-16
-12
-22
-18
-14
-19
-15
-19
-8
-8
-14
-14
-12
-11
-13
-18
-26
-18
-23
-24
-13
-25
-20
-28
-19
-21
-24
-16
-11
-9
-15
-20
-19
-23
-27
-26
-37
-34
-36
-45
-40
-42
-45
-39
-39
-31
-32
-20
-32
-19
-13
-21
-16
-20
-13
-19
-12
-17
-12
-22
-15
-15
-9
1
17
40
33
12
-42
-105
-202
-308
-417
-493
-524
-491
-389
-277
-169
-85
-28
-5
16
24
34
45
42
45
48
39
42
41
42
51
51
44
39
37
29
20
25
33
25
32
22
18
19
24
24
24
17
6
8
14
11
-1
-9
3
3
-4
-8
-5
-13
-12
-22
-21
-13
-10
-10
-12
-22
-27
-22
-32
-21
-29
-31
-31
-25
-32
-33
-27
-30
-27
-19
-18
-30
-25
-19
-12
-2
-7
-2
5
8
15
8
18
13
19
12
6
16
13
15
19
14
19
19
15
17
13
16
9
7
1
2
0
-3
0
-3
4
2
0
6
-7
-13
-6
-1
-5
-2
-11
-3
-9
-8
-2
0
2
-5
-1
-7
-6
-7
7
2
-4
-9
0
-7
-3
-8
-18
-15
-12
-10
-19
-4
-9
1
-6
-16
-17
-7
-8
-12
-4
-8
-3
-15
-6
-12
-18
-20
-12
-6
-7
-10
-8
-9
-17
-13
-15
-17
-19
-19
-25
-18
-31
-36
-38
-35
-37
-29
-19
-21
-28
-25
-25
-28
-19
-23
-27
-30
-18
-23
-29
-28
-27
-23
-24
-24
-29
-34
-28
-32
-38
-40
-50
-60
-61
-63
-57
-40
-38
-43
-39
-31
-22
-24
-31
-33
-33
-26
-27
-24
-21
-28
-29
-16
-8
5
14
32
21
-13
-54
-123
-199
-294
-404
-499
-548
-523
-435
-317
-201
-115
-61
-14
9
19
25
38
34
26
40
44
45
43
42
43
47
40
48
49
35
31
27
27
25
19
11
12
16
11
7
0
6
1
7
-5
8
-5
7
-7
-14
-17
-17
-9
-10
-5
-21
-22
-26
-27
-36
-43
-38
-34
-32
-45
-40
-44
-42
-34
-47
-39
-46
-36
-35
-43
-44
-40
-37
-40
-27
-24
-18
-16
-2
-2
1
1
7
3
8
7
15
24
11
12
11
10
9
16
7
-1
8
0
-2
4
-4
-3
4
3
-9
-6
-6
-4
-9
-9
-8
-13
-15
-14
-12
-12
-14
-10
-21
-13
-12
-10
-6
-16
-12
-15
-15
-6
-9
-13
-13
-21
-5
-10
-13
-12
-9
-14
-9
-18
-21
-17
-23
-9
-9
-10
-13
-20
-13
-20
-23
-18
-17
-12
-12
-25
-19
-16
-25
-19
-27
-30
-37
-29
-38
-30
-33
-37
-36
-32
-32
-26
-35
-32
-36
-37
-40
-32
-28
-28
-28
-31
-24
-26
-38
-25
-28
-34
-28
-34
-44
-37
-52
-52
-57
-54
-64
-63
-66
-61
-64
-69
-52
-46
-37
-39
-33
-29
-40
-45
-35
-34
-35
-39
-47
-41
-48
-45
-38
-20
-5
2
2
-31
-75
-148
-234
-339
-447
-532
-546
-491
-388
-277
-173
-101
-50
-12
6
12
20
21
22
39
33
33
32
30
36
34
34
30
39
39
29
42
38
24
25
11
14
18
11
12
14
10
8
9
0
4
7
0
8
13
9
4
6
-7
-4
0
-10
-7
-7
-12
-9
-23
-15
-17
-18
-21
-25
-28
-24
-27
-34
-27
-33
-30
-17
-21
-24
-19
-21
-10
-12
-8
-1
1
18
12
10
30
26
16
26
24
28
36
39
35
28
31
43
31
25
21
27
25
32
29
22
27
21
19
22
19
11
15
13
9
6
7
15
22
13
12
21
14
12
8
14
6
12
11
7
-2
8
7
6
3
7
13
13
16
14
8
16
6
6
-7
-10
-1
1
-6
-5
-2
3
-1
-9
-15
-7
-6
2
3
-11
-16
-15
-13
-9
-13
-12
-6
-4
-9
-8
-17
-8
-4
-3
-3
-7
-20
-16
-23
-29
-31
-28
-22
-20
-24
-28
-35
-37
-42
-33
-30
-32
-31
-20
-20
-12
-13
-11
-8
-8
3
-6
-6
-12
-9
-13
-4
-12
-12
9
14
23
36
33
17
-22
-98
-191
-283
-395
-469
-510
-468
-376
-275
-175
-84
-29
0
29
33
43
44
50
55
45
50
46
46
41
45
44
46
48
45
38
39
36
37
32
32
24
19
17
7
8
4
16
7
8
12
8
19
8
4
-1
11
5
2
-11
-7
-12
-10
-8
-17
-23
-26
-21
-25
-26
-27
-35
-29
-31
-25
-34
-45
-43
-30
-26
-27
-25
-23
-23
-20
-16
-17
-5
1
6
4
3
19
23
20
25
24
33
25
20
21
19
23
27
16
9
3
14
6
7
-7
-4
1
-5
2
-8
2
-6
-2
-14
-15
-11
-14
0
-3
4
2
6
-6
-4
-16
-20
-13
-12
-5
-2
-8
-13
-13
-11
-14
-13
-21
-10
-18
-23
-16
-10
-14
-21
-16
-10
-11
-13
-14
-20
-16
-21
-14
-27
-19
-12
-16
-15
-25
-17
-13
-19
-18
-23
-22
-11
-8
-10
-19
-20
-20
-23
-21
-19
-25
-12
-10
-9
-10
-22
-18
-20
-9
-13
-4
-15
-20
-23
-32
-42
-54
-55
-51
-59
-56
-37
-28
-31
-29
-31
-25
-29
-21
-20
-10
-19
-23
-19
-28
-26
-22
-15
-3
4
22
29
44
27
-20
-76
-173
-258
-368
-461
-536
-532
-461
-335
-225
-130
-70
-19
1
11
24
28
34
44
48
48
44
51
37
50
43
46
43
45
35
37
29
20
27
20
25
19
22
7
14
10
18
2
5
3
7
-5
0
-7
-14
-15
-18
-22
-20
-21
-22
-21
-20
-22
-24
-25
-37
-35
-40
-43
-41
-30
-41
-40
-39
-40
-44
-43
-36
-47
-39
-44
-37
-41
-25
-17
-9
-4
-10
-10
-7
4
11
3
6
9
5
12
9
14
11
-3
0
-9
-16
-10
-17
-13
-2
0
-9
4
-1
9
-10
-12
-10
-13
-13
-12
-17
-14
-9
-18
-9
5
-4
-14
-12
-16
-13
-14
-15
-12
-5
-9
-20
-23
-20
-18
-16
-17
-21
-17
-11
-13
-8
-15
-20
-14
-18
-10
-22
-19
-16
-20
-27
-21
-29
-33
-29
-21
-11
-10
-18
-27
-22
-33
-27
-27
-18
-16
-24
-15
-26
-31
-27
-31
-34
-19
-31
-20
-19
-30
-32
-35
-32
-44
-43
-51
-58
-51
-54
-50
-40
-39
-41
-29
-33
-22
-26
-29
-26
-25
-21
-27
-32
-21
-30
-29
-27
-14
14
19
17
-4
-50
-108
-193
-294
-400
-489
-531
-512
-417
-308
-199
-106
-53
-20
6
22
29
30
35
39
41
56
52
58
57
53
52
52
56
43
44
33
32
41
31
27
33
23
28
17
21
8
2
1
6
8
11
9
6
7
5
-2
4
-2
2
2
-11
-4
-11
-18
-15
-24
-17
-22
-29
-30
-29
-27
-31
-27
-24
-21
-20
-28
-24
-17
-14
-15
-6
-4
-5
-8
-9
-1
6
14
13
10
3
3
8
14
19
13
16
16
16
7
6
2
11
9
14
5
0
3
4
5
-1
2
-4
-4
4
-1
-9
-7
-6
2
-7
-5
-4
-5
3
-1
-2
-2
5
-5
-1
1
2
8
-3
0
-12
-21
-13
0
-9
-5
-9
4
4
0
-6
-7
-11
-7
-12
-1
-11
-9
-15
-17
-6
-4
-5
-7
-14
-15
-15
-18
-19
-22
-29
-26
-24
-29
-37
-48
-49
-46
-41
-51
-45
-26
-19
-17
-17
-23
-26
-20
-13
-9
-13
-18
-12
-16
-18
-26
-14
-10
-8
14
26
37
24
3
-52
-120
-204
-299
-402
-483
-507
-453
-367
-255
-155
-78
-25
10
25
22
29
33
37
41
44
44
46
45
45
54
52
43
42
36
28
30
30
31
19
20
18
14
15
10
9
12
14
3
4
4
0
2
0
-2
-3
-16
-20
-22
-23
-22
-22
-10
-17
-17
-15
-34
-27
-22
-20
-27
-34
-32
-32
-33
-23
-28
-28
-27
-24
-25
-20
-21
-12
-15
-6
0
3
20
16
17
19
15
25
25
23
33
25
17
16
20
27
18
20
29
26
18
20
23
20
10
11
13
10
7
0
6
5
11
17
13
15
10
16
14
7
8
6
2
-4
-2
6
7
2
0
-8
-10
-5
-1
-2
1
-9
-13
-17
-4
-13
-12
-6
-14
-24
-22
-24
-18
-11
-11
-9
-17
-19
-15
-29
-25
-21
-15
-13
-19
-39
-49
-43
-50
-60
-73
-75
-71
-57
-47
-56
-51
-38
-33
-27
-30
-25
-21
-16
-16
-25
-26
-18
-20
-15
-23
-20
-13
7
25
25
12
-32
-87
-162
-260
-361
-462
-517
-506
-426
-310
-201
-116
-53
-13
9
20
28
28
34
41
33
42
46
40
40
43
37
43
43
39
33
37
31
22
16
11
18
23
16
9
17
10
7
0
2
8
6
7
8
0
-5
6
-15
-17
-12
-19
-15
-17
-14
-24
-16
-19
-12
-24
-29
-20
-25
-24
-42
-48
-44
-38
-36
-38
-26
-28
-23
-20
-15
-19
-15
-15
0
-9
-3
10
12
11
8
17
20
5
17
7
10
17
18
5
1
1
1
8
4
9
8
-1
-10
4
1
-13
-5
-3
3
-6
-7
1
-7
-10
-18
-14
-13
-6
2
-10
-12
-15
-13
-21
-22
-18
-16
-15
-15
-18
-17
-16
-11
-1
-7
-18
-12
-14
-10
-19
-21
-19
-24
-16
-16
-25
-19
-26
-19
-24
-33
-24
-25
-20
-29
-26
-24
-17
-21
-12
-27
-24
-21
-22
-22
-19
-20
-24
-30
-30
-35
-33
-24
-35
-32
-24
-18
-24
-15
-24
-32
-35
-32
-40
-50
-63
-61
-62
-72
-68
-59
-52
-48
-35
-34
-37
-32
-28
-28
-27
-29
-10
-15
-24
-23
-24
-20
-29
-14
-9
10
18
27
-2
-58
-120
-197
-295
-401
-488
-536
-520
-418
-321
-201
-118
-56
-24
-11
14
23
34
35
44
46
36
47
40
46
48
50
41
42
37
30
35
29
31
22
26
26
21
30
19
16
5
11
22
19
6
-4
0
6
5
1
1
-5
-5
-10
-10
-15
-11
-19
-23
-14
-17
-18
-20
-23
-29
-24
-32
-29
-24
-30
-24
-20
-25
-23
-23
-31
-22
-27
-18
-17
-19
-12
-8
-3
8
10
3
16
6
9
16
17
12
9
6
7
-1
6
2
-5
-11
-6
6
4
-8
-2
-7
6
14
14
1
7
5
11
10
0
9
6
2
-3
6
-5
9
4
2
7
6
-10
-9
-4
0
4
-2
-5
-3
-10
-17
-6
-13
-12
-13
-10
-12
-5
-15
-16
-13
-13
-17
-12
-13
-12
-8
-19
-20
-16
-8
-9
-17
-13
-14
-25
-13
-8
-9
-11
-20
-15
-24
-21
-24
-12
-11
-16
-20
-23
-20
-21
-21
-29
-25
-21
-20
-20
-20
-31
-25
-32
-28
-42
-46
-46
-52
-52
-49
-42
-36
-30
-31
-31
-25
-28
-21
-17
-10
-15
-14
-10
-15
-11
-16
-13
-16
-16
-5
10
35
44
44
2
-51
-113
-201
-301
-405
-479
-487
-441
-319
-233
-135
-60
-20
17
20
37
35
38
34
32
44
49
42
37
49
43
41
40
28
27
26
30
22
22
4
11
8
8
8
4
7
2
9
7
10
-1
-4
-5
-7
-21
-8
-6
-11
-7
-22
-19
-19
-25
-20
-31
-28
-17
-21
-18
-25
-31
-33
-30
-25
-30
-31
-35
-41
-39
-31
-37
-38
-29
-28
-36
-22
-26
-19
-19
-15
-4
-4
6
7
-2
3
-2
-2
-1
1
-5
3
-6
9
3
0
-4
-8
-8
-4
-14
-11
-8
-8
-14
-12
8
-8
0
-13
-19
-9
-13
-11
-4
-1
-10
4
-13
-8
-11
-19
-12
-16
-21
-17
0
-13
-7
-13
-15
-16
-13
-16
-17
-15
-12
-14
-16
-20
-20
-28
-23
-34
-18
-14
-13
-14
-13
-20
-20
-18
-16
-19
-18
-19
-21
-28
-18
-25
-27
-16
-22
-24
-24
-32
-29
-27
-20
-27
-22
-15
-23
-20
-24
-19
-13
-17
-15
-19
-13
-13
-18
-15
-26
-22
-21
-13
-21
-23
-29
-21
-29
-22
-29
-24
-26
-39
-41
-48
-51
-53
-51
-42
-46
