# ASI test file format
# {"":{"device ID": "","comments": " 30 HIIT ","keywords": "Belt, HIIT","firmware version": "0.6.3","device": "FieldWiz + Belt","sampling rate": 250,"resolution": "[16-bit]","date": "2020-05-05","column": ["A1","ECG"],"sensor": ["RAW, ECG"],"label": ["ECG"]}}
# EndOfHeader
46
49
49
51
48
48
48
48
45
45
45
45
48
48
44
49
45
46
45
45
46
45
43
37
40
36
33
29
26
23
22
21
19
17
24
21
27
24
28
26
28
27
24
23
22
24
21
25
36
42
53
54
43
26
-5
-47
-98
-154
-216
-253
-232
-179
-115
-63
-24
4
24
34
42
46
50
54
58
54
54
54
56
55
54
47
51
51
50
50
46
44
43
41
37
37
33
34
33
32
30
26
23
23
20
18
17
13
18
13
12
11
15
11
9
11
12
14
9
7
8
8
6
5
2
2
-3
-7
-7
-8
-11
-7
-6
-7
-4
-7
-2
2
2
3
1
-1
6
5
3
3
5
5
7
7
10
8
6
8
9
9
10
11
12
12
15
13
13
11
8
7
10
8
8
11
12
11
13
12
15
16
15
14
14
16
15
17
17
15
13
11
9
5
1
-3
1
-4
0
-3
-2
-6
-3
-6
-5
-2
0
-2
-2
-1
1
1
2
3
4
13
29
35
35
29
9
-21
-58
-111
-168
-228
-265
-248
-202
-140
-85
-47
-21
-2
14
19
26
33
32
33
32
33
31
35
33
28
26
28
26
25
24
22
22
21
16
17
15
16
14
10
5
6
3
3
1
0
-2
-4
-9
-8
-7
-12
-10
-7
-11
-7
-8
-8
-9
-11
-9
-12
-15
-14
-16
-17
-21
-24
-24
-22
-23
-21
-20
-20
-22
-19
-18
-20
-20
-15
-14
-15
-12
-14
-10
-11
-11
-12
-10
-11
-13
-10
-10
-7
-4
-5
-4
-7
-5
-5
-7
-5
-5
-7
-5
-6
-6
-7
-7
-5
-4
-4
-7
-7
-9
-9
-8
-10
-8
-10
-10
-7
-7
-4
-3
-2
-4
1
2
0
-2
-6
-8
-8
-11
-14
-15
-17
-18
-19
-21
-15
-15
-10
-14
-15
-10
-12
-8
-11
-10
-10
-13
-10
-7
2
14
25
32
31
17
-11
-46
-95
-151
-214
-262
-278
-239
-173
-107
-64
-34
-10
4
13
20
23
22
24
27
28
28
24
22
24
19
21
18
15
14
13
11
12
13
14
9
8
6
4
6
3
-1
-1
-1
-2
-6
-9
-5
-9
-5
-3
-4
-5
-3
-2
-3
-1
-3
-3
-5
-7
-8
-4
-8
-12
-12
-12
-18
-16
-18
-21
-18
-17
-18
-18
-17
-12
-14
-12
-9
-7
-3
-4
-1
-1
-3
0
-3
-5
-5
2
-1
5
3
6
3
5
7
5
7
2
1
2
2
0
0
1
0
2
0
2
-2
1
-1
1
2
3
2
0
3
2
3
-1
0
-1
1
-3
-6
-6
-9
-16
-13
-18
-18
-23
-19
-17
-17
-14
-11
-10
-10
-10
-6
-9
-8
-10
-10
-11
-5
1
10
20
27
31
27
8
-20
-61
-112
-171
-229
-269
-256
-208
-145
-91
-49
-17
2
15
21
24
33
31
33
32
33
33
32
31
29
31
30
29
25
24
21
24
19
20
14
14
14
13
12
7
7
6
7
4
6
-2
-2
-5
-4
-6
-9
-5
-7
-8
-8
-8
-9
-13
-11
-13
-8
-11
-15
-16
-15
-14
-14
-15
-17
-14
-13
-14
-14
-15
-15
-12
-15
-12
-10
-8
-10
-8
-8
-8
-8
-5
-5
-2
-3
-3
-1
-4
-4
1
-1
-5
-5
-3
-1
2
-5
-6
-3
-2
-4
-5
-2
0
-4
0
-2
0
1
0
-1
1
4
2
2
4
1
1
1
1
-4
-5
-4
-8
-9
-11
-13
-14
-21
-22
-25
-21
-20
-19
-16
-17
-11
-13
-12
-11
-11
-13
-7
-10
-10
-6
1
7
17
28
31
23
4
-24
-66
-117
-175
-228
-259
-251
-200
-138
-85
-47
-19
0
14
18
24
28
28
34
33
33
33
30
34
32
30
27
25
25
23
23
17
17
14
14
11
6
4
4
2
-2
-7
-8
-13
-12
-12
-11
-12
-14
-13
-14
-12
-14
-11
-10
-12
-15
-12
-13
-13
-13
-12
-16
-20
-25
-25
-30
-32
-29
-29
-27
-26
-24
-29
-27
-26
-25
-24
-25
-25
-21
-24
-20
-20
-19
-22
-23
-20
-23
-24
-25
-27
-23
-23
-23
-22
-22
-22
-24
-28
-30
-28
-31
-28
-27
-28
-24
-26
-29
-24
-25
-22
-20
-24
-21
-21
-18
-15
-15
-11
-14
-8
-7
-7
-7
-6
-8
-8
-12
-13
-12
-9
-11
-15
-13
-11
-3
4
5
11
11
13
17
16
18
18
15
19
20
19
21
30
40
47
50
40
24
-12
-53
-106
-168
-228
-274
-260
-201
-132
-72
-30
7
23
36
45
50
50
49
53
52
53
54
51
47
51
50
49
49
48
42
44
41
35
34
36
32
27
28
29
27
26
29
25
20
20
20
18
17
18
19
17
16
16
16
10
8
10
9
7
5
8
0
-3
-6
-4
-13
-11
-14
-14
-16
-13
-15
-11
-12
-10
-10
-7
-8
-7
-9
-7
0
1
-3
-1
3
1
2
3
3
5
6
8
10
7
5
6
7
8
9
5
9
7
7
8
7
8
7
8
3
9
5
8
6
10
6
8
10
12
12
9
6
3
2
2
0
-4
-7
-8
-10
-10
-11
-12
-10
-9
-10
-9
-8
-9
-13
-8
-9
-8
-10
-7
-7
-5
-2
8
22
32
32
24
2
-31
-73
-125
-182
-239
-270
-247
-192
-133
-83
-45
-20
0
11
18
26
28
32
32
31
33
35
35
33
34
32
33
29
31
29
27
25
24
23
21
20
19
17
17
15
14
12
8
8
5
2
1
3
0
3
3
2
-1
-1
2
0
2
6
3
1
-4
-7
-5
-8
-11
-12
-12
-10
-13
-14
-12
-12
-13
-12
-12
-11
-9
-5
2
-2
4
4
4
5
5
11
11
12
11
11
11
17
15
18
17
18
17
17
16
13
19
15
12
17
16
16
18
17
15
15
14
16
18
20
19
18
17
16
15
14
11
7
5
1
1
-3
-4
-4
-2
0
2
5
7
6
6
8
11
7
8
5
5
12
16
23
33
41
40
27
5
-31
-78
-133
-194
-243
-263
-228
-166
-106
-56
-19
7
24
32
37
39
37
40
36
39
39
39
39
37
35
33
35
31
30
29
28
27
23
23
22
19
18
19
20
13
13
13
9
9
9
6
6
3
4
4
5
3
4
1
4
3
2
2
-2
-5
-7
-8
-10
-13
-19
-18
-15
-16
-19
-16
-16
-12
-13
-12
-11
-10
-10
-5
-3
0
-4
-5
0
1
5
4
2
3
2
4
8
5
8
8
8
7
7
10
11
11
12
13
12
12
12
14
13
11
16
15
14
18
22
24
24
19
18
15
16
14
9
9
5
2
-1
0
2
4
3
6
7
11
11
8
9
7
10
7
8
8
5
9
17
25
31
30
19
2
-24
-64
-110
-164
-219
-243
-227
-180
-119
-73
-29
-5
9
21
25
28
32
33
34
31
35
31
34
35
32
31
32
29
27
27
28
29
24
19
20
15
16
15
13
9
5
7
1
3
3
3
0
-3
-4
-4
-7
-9
-12
-7
-10
-15
-14
-13
-13
-16
-15
-16
-22
-24
-26
-30
-32
-34
-35
-37
-35
-37
-35
-38
-35
-36
-36
-36
-39
-38
-38
-41
-41
-44
-45
-44
-46
-48
-44
-43
-40
-41
-42
-41
-39
-38
-37
-35
-30
-30
-30
-29
-29
-26
-24
-26
-23
-21
-20
-20
-20
-16
-13
-18
-16
-18
-17
-20
-24
-23
-25
-24
-29
-29
-28
-22
-21
-19
-18
-15
-13
-14
-13
-15
-15
-10
-10
-8
-12
-5
6
15
26
28
22
8
-27
-70
-128
-191
-248
-280
-266
-208
-146
-86
-49
-20
0
10
20
24
28
28
26
30
27
29
28
27
28
25
25
25
26
25
24
21
23
26
19
15
16
16
13
11
13
11
6
3
5
1
3
-1
-3
0
-1
-2
-3
0
-5
-4
-4
-7
-8
-11
-11
-13
-17
-19
-19
-21
-21
-19
-17
-19
-17
-14
-16
-14
-8
-8
-4
-4
-4
-3
-4
3
2
3
1
2
3
2
-3
-3
-1
-5
-3
-5
-6
-4
-4
-7
-6
-7
-8
-6
-4
-9
-8
-8
-7
-3
-5
-5
-5
-3
-3
3
1
-1
-1
1
-3
-4
-6
-8
-12
-13
-14
-15
-12
-10
-8
-7
-2
0
4
4
2
1
2
4
4
3
5
12
21
36
44
46
42
22
-4
-39
-84
-137
-191
-230
-226
-182
-131
-80
-43
-15
6
17
29
32
35
39
37
39
38
39
39
36
35
35
38
36
31
33
34
30
32
30
27
25
23
27
26
21
18
24
21
20
20
19
18
13
14
14
14
14
15
15
16
16
14
12
7
10
7
5
5
8
1
-5
-4
-5
-4
-7
-6
-6
-8
-9
-5
-6
-3
-3
0
-1
5
7
5
6
11
9
9
8
13
10
13
15
11
13
15
17
14
13
14
16
16
14
14
15
15
14
12
16
15
18
18
20
18
17
16
16
16
13
11
11
10
4
-1
2
3
5
6
7
11
9
9
8
11
11
11
11
7
10
7
12
18
28
36
43
50
37
13
-17
-63
-117
-172
-224
-246
-224
-165
-110
-59
-24
-3
17
27
35
39
44
43
45
45
45
41
39
39
35
34
31
34
30
30
25
29
23
23
21
20
20
13
16
5
7
6
4
1
2
1
0
2
1
1
-3
2
-3
-3
0
-6
-5
-8
-8
-11
-12
-17
-19
-20
-22
-22
-26
-26
-28
-27
-26
-27
-30
-30
-29
-25
-29
-24
-21
-19
-21
-17
-15
-15
-14
-11
-14
-10
-11
-13
-10
-10
-7
-9
-10
-9
-13
-11
-9
-8
-8
-9
-7
-6
-5
-5
-5
-8
-5
-5
-4
-6
-7
-2
-4
-4
-10
-11
-13
-15
-19
-20
-21
-20
-21
-21
-17
-16
-18
-12
-6
-12
-15
-12
-12
-13
-12
-11
-14
-9
-5
3
17
29
35
32
17
-7
-36
-89
-143
-199
-239
-245
-213
-157
-105
-67
-36
-14
-1
10
18
22
23
23
25
32
27
28
29
28
28
24
26
23
24
22
19
19
16
15
12
12
10
9
7
8
9
6
2
3
4
-1
-1
1
4
-3
-2
-3
-3
-4
-4
-4
-8
-10
-9
-12
-15
-14
-18
-21
-21
-19
-22
-21
-20
-26
-25
-20
-19
-22
-16
-16
-17
-12
-10
-8
-7
-7
-7
-1
0
0
1
5
5
2
1
-2
3
1
1
6
8
5
3
3
3
2
-2
3
1
3
2
2
4
3
1
6
8
5
2
0
0
-5
-5
-6
-12
-11
-13
-12
-10
-5
0
-2
2
5
3
1
2
4
4
2
2
0
1
6
13
23
37
42
34
15
-12
-46
-100
-160
-218
-253
-243
-193
-137
-82
-49
-24
-6
9
17
20
25
29
27
29
28
27
25
27
25
23
26
25
22
22
23
20
17
17
15
16
12
16
11
10
8
6
1
4
3
1
2
1
1
2
0
-3
-2
-1
-3
-5
-5
-5
-5
-6
-8
-12
-14
-16
-17
-16
-16
-19
-21
-20
-21
-19
-19
-18
-13
-14
-15
-8
-11
-11
-8
-9
-7
-5
-7
-7
0
0
-6
-5
1
2
3
2
3
5
4
1
3
2
3
2
2
6
1
3
-1
4
1
4
4
5
3
5
6
1
3
-3
0
-6
-9
-13
-19
-23
-28
-27
-27
-25
-26
-19
-11
-9
-6
-5
-6
-4
-7
-9
-7
-8
-7
-2
9
17
27
39
41
31
12
-21
-60
-113
-166
-218
-246
-221
-169
-115
-70
-34
-8
11
20
32
34
39
39
37
42
38
40
41
43
40
36
35
38
31
32
33
28
27
25
23
24
17
15
18
16
12
14
12
14
11
11
10
8
7
3
2
3
-2
3
7
7
5
4
3
4
1
-5
-7
-8
-8
-17
-14
-17
-13
-16
-17
-18
-14
-15
-13
-13
-9
-8
-13
-5
-5
-6
-4
0
2
3
4
3
2
5
4
4
9
4
7
7
2
4
7
6
7
9
8
7
12
12
9
10
13
11
7
10
10
10
13
7
5
1
5
3
1
-1
-4
-6
-10
-11
-7
-3
-6
-1
0
-5
-5
-6
-6
-7
-5
-4
-6
-5
1
8
20
30
37
36
23
-4
-41
-87
-149
-205
-256
-271
-235
-176
-120
-74
-43
-17
1
10
20
23
26
26
27
24
25
29
28
25
24
25
24
21
24
19
18
19
16
11
11
12
13
11
9
7
6
-1
-2
-1
0
-7
-7
-5
-4
-5
-7
-6
-3
-6
-4
-4
-5
-3
-4
-9
-6
-8
-12
-12
-13
-15
-17
-18
-16
-14
-16
-19
-21
-18
-16
-13
-14
-13
-13
-11
-11
-11
-11
-8
-9
-7
-6
-5
-3
-5
-2
-5
0
-2
-7
-3
-3
-2
-5
-7
-9
-6
-8
-2
-5
-6
-4
-4
-4
-3
-5
-5
-5
-4
-3
-2
0
0
-1
0
-9
-6
-9
-14
-17
-21
-20
-22
-23
-21
-19
-15
-12
-10
-11
-11
-9
-10
-9
-6
-7
-5
0
9
19
31
37
34
21
-5
-42
-89
-144
-202
-247
-251
-210
-152
-98
-57
-29
-3
11
17
21
25
32
31
33
35
31
29
29
27
27
30
29
26
25
26
25
22
21
18
18
16
11
11
10
8
6
2
4
2
1
2
2
1
1
0
0
-3
0
-3
-10
-9
-9
-8
-10
-8
-8
-5
-8
-6
-9
-9
-8
-15
-13
-15
-17
-15
-17
-16
-15
-19
-19
-21
-18
-16
-12
-12
-10
-8
-9
-5
5
1
6
5
8
11
9
8
7
8
7
9
8
12
10
11
9
14
12
17
13
11
11
8
11
13
9
7
7
8
5
8
8
5
3
4
-2
-4
-1
-1
-7
-6
-12
-10
-13
-10
-10
-11
-7
-4
-10
-7
-10
-15
-17
-16
-17
-15
-10
-4
6
21
28
28
22
-3
-29
-73
-123
-177
-222
-244
-208
-153
-96
-53
-22
-3
15
25
32
38
39
42
43
45
44
42
40
43
43
41
41
38
33
33
32
27
27
23
24
23
19
19
20
17
15
15
12
11
9
11
11
8
7
4
3
3
-2
0
3
4
-1
-3
-5
-2
-6
-5
1
-4
-7
-9
-10
-13
-7
-8
-11
-13
-12
-13
-11
-12
-12
-11
-9
-11
-4
-4
-7
-2
-4
-3
-3
1
4
3
-2
1
0
-3
-5
-5
0
0
-5
-1
2
-2
0
0
-6
-5
0
-3
-2
1
-5
-4
-3
-2
-6
-7
-4
-2
-4
0
-6
-9
-11
-14
-21
-23
-25
-27
-28
-22
-23
-25
-21
-16
-21
-15
-8
-8
-6
-7
-1
0
3
7
13
18
32
43
47
41
30
1
-36
-90
-149
-202
-244
-236
-191
-130
-81
-41
-12
12
24
29
32
34
40
38
37
39
40
39
37
36
38
33
33
34
31
32
29
27
26
27
25
22
20
16
16
12
7
10
6
8
2
3
1
-6
-5
-7
-8
-9
-9
-8
-8
-11
-8
-14
-11
-13
-8
-6
-6
-10
-8
-11
-11
-11
-11
-5
-7
-7
-8
-9
-7
-4
-3
-5
-5
-5
-6
-5
-4
-7
-4
0
2
-2
-3
1
1
0
1
1
4
-1
-5
-3
-3
-2
-2
-1
-3
-5
-5
-5
-5
-6
-7
-7
-9
-9
-5
-7
-5
-6
-9
-7
-9
-8
-6
-7
-9
-9
-14
-14
-20
-20
-21
-23
-20
-21
-20
-18
-15
-13
-10
-13
-12
-13
-17
-19
-13
-15
-13
-3
11
26
36
36
27
9
-22
-62
-114
-169
-219
-245
-221
-162
-106
-58
-30
-7
11
24
27
28
29
36
32
32
33
30
28
27
29
24
24
24
19
24
17
19
16
11
11
12
11
6
5
2
3
-1
-2
-5
-8
-6
-7
-7
-5
-4
-5
-2
2
-3
-5
2
1
-3
0
-1
4
-1
-3
-2
-6
-6
-5
-8
-9
-8
-10
-8
-13
-13
-12
-10
-4
-8
-7
-2
-5
0
2
-1
2
4
1
5
4
2
2
1
0
-3
1
-1
1
0
2
-2
-1
3
1
1
3
4
0
2
1
1
1
0
1
2
4
6
3
4
5
6
4
4
-1
0
2
-5
-3
-9
-9
-10
-14
-13
-10
-12
-5
-2
-5
-5
-4
-6
-6
-8
-8
-6
-10
-4
1
10
24
28
31
15
-6
-36
-80
-131
-192
-243
-255
-219
-159
-95
-46
-12
13
27
41
44
47
51
53
52
52
55
56
55
49
46
43
43
43
44
40
37
40
37
33
32
29
30
20
24
19
22
19
18
14
17
20
20
24
19
17
18
18
17
22
23
24
25
21
18
20
20
11
12
11
9
8
4
6
-1
-2
-5
-2
0
0
2
0
-3
-6
-10
-11
-15
-12
-11
-9
-8
-1
7
9
12
13
7
12
12
12
16
11
10
10
5
4
2
1
-1
-3
-2
-7
-9
-7
-9
-8
-4
-7
-1
-4
-3
-3
-3
-1
-2
0
-1
1
-5
-2
-7
-7
-7
-13
-13
-19
-23
-24
-27
-25
-28
-30
-29
-26
-25
-25
-21
-21
-19
-21
-18
-22
-19
-19
-23
-18
-13
-4
8
13
10
2
-14
-41
-79
-125
-181
-237
-273
-261
-210
-150
-100
-60
-32
-17
-1
8
13
17
23
23
25
24
26
28
24
28
23
18
21
15
19
14
17
17
15
13
14
14
10
8
8
5
-1
0
-2
-5
-3
-4
-3
-6
-7
-6
-10
-10
-3
-7
-5
-7
-4
-3
-5
-3
0
-4
-5
-3
-7
-5
-8
-8
-11
-10
-9
-10
-8
-12
-10
-9
-11
-7
-10
-7
-11
-8
-8
-9
-9
-7
-9
-7
-7
-7
-5
-9
-5
-6
-6
-4
-5
-3
-6
-5
-3
-6
-4
0
-7
-5
-7
-7
-3
-8
-5
-5
-6
-7
-6
-8
-5
-1
-2
0
-3
-5
-2
-6
-8
-6
-10
-13
-15
-15
-15
-20
-21
-25
-19
-20
-14
-11
-11
-13
-11
-14
-9
-14
-9
-11
-10
-7
0
5
11
21
21
11
-3
-28
-59
-105
-159
-213
-253
-244
-195
-140
-88
-49
-23
-6
4
12
17
22
23
24
27
25
27
25
23
28
22
23
23
22
26
23
22
24
19
20
15
17
10
7
7
8
8
5
6
5
4
5
3
2
4
0
1
0
1
4
3
1
3
1
4
1
3
-3
-3
-7
-4
-4
-12
-9
-11
-10
-12
-13
-13
-11
-15
-13
-17
-12
-16
-13
-12
-12
-13
-15
-10
-8
-6
-6
-8
-9
-13
-11
-8
-9
-5
-5
-5
-10
-7
-6
-4
-6
-5
-7
-7
-4
-9
-6
-4
-7
-5
-10
-7
-4
-4
-3
-4
-3
2
2
-2
-4
-6
0
-4
-8
-12
-14
-18
-20
-17
-20
-18
-17
-12
-12
-13
-8
-9
-7
-10
-6
-6
-7
-10
-6
-1
7
17
26
32
24
7
-18
-59
-106
-162
-218
-254
-249
-200
-144
-99
-59
-31
-9
3
13
17
23
27
27
26
27
22
20
21
18
19
17
13
13
16
13
17
17
15
14
16
16
11
7
9
5
7
3
-1
-6
-5
-5
-7
-9
-9
-4
-2
1
-2
0
1
-2
-3
-5
-7
-4
-6
0
-2
4
1
-3
-3
-8
-12
-14
-17
-18
-19
-17
-9
-7
1
5
4
2
2
4
5
6
7
7
9
11
13
11
12
13
14
11
14
15
19
25
21
20
21
20
15
16
13
17
18
19
18
17
17
20
19
18
16
20
21
19
22
19
21
20
17
20
15
14
12
8
7
5
4
6
8
11
5
3
7
6
8
8
8
14
16
14
7
7
9
15
21
30
38
41
35
20
-6
-50
-104
-160
-220
-247
-222
-168
-112
-70
-34
-10
10
24
27
36
38
44
40
35
39
37
40
38
33
31
41
43
43
41
37
37
32
29
26
28
25
27
24
22
18
17
11
13
10
11
7
4
5
6
1
4
2
2
5
3
4
2
4
3
6
1
-1
-3
-9
-5
-1
-5
-11
-8
-11
-9
-10
-14
-16
-17
-17
-15
-19
-18
-16
-19
-12
-20
-14
-15
-16
-17
-14
-15
-15
-17
-10
-11
-9
-16
-17
-16
-11
-13
-10
-13
-9
-12
-13
-19
-19
-10
-10
-4
-2
-3
-4
0
-3
-4
-7
-4
-3
-2
-2
-4
3
-4
-7
-9
-8
-13
-9
-10
-5
-7
-1
1
5
2
7
7
6
4
3
7
8
7
16
20
27
37
40
35
23
-8
-42
-92
-149
-204
-244
-239
-191
-130
-76
-36
-8
12
24
36
35
42
39
41
40
39
36
36
40
38
40
37
33
36
36
34
33
32
27
25
23
19
19
16
17
17
16
14
10
9
3
7
5
4
0
0
2
2
-4
-1
-4
2
1
-1
1
1
-2
-1
-4
-2
-6
-6
-7
-5
-8
-8
-6
-7
-7
-7
-4
-7
-2
-4
-2
-5
1
-4
-3
-5
-2
-4
-6
-5
0
-4
-6
-6
-4
-5
-5
-2
-5
-7
-4
-5
-7
-4
-2
0
0
-2
-3
0
-5
-1
0
3
3
3
4
6
4
4
3
8
2
5
4
2
2
-4
-5
-7
-8
-13
-18
-20
-19
-16
-19
-19
-16
-15
-17
-15
-14
-15
-14
-12
-12
-9
-9
-10
-3
7
16
21
21
9
-9
-38
-69
-108
-157
-208
-233
-216
-172
-120
-76
-41
-14
-5
5
8
10
17
21
24
29
22
20
17
19
14
15
14
18
16
19
16
9
3
3
6
10
11
16
11
13
10
3
3
-3
-1
-2
-3
-8
-3
-6
-5
-8
-8
-9
-8
-9
-5
-11
-12
-11
-11
-9
-11
-13
-8
-5
-5
-11
-10
-18
-13
-12
-9
-9
-12
-10
-16
-12
-14
-14
-12
-11
-11
-9
-7
-14
-11
-7
-10
-6
-7
-4
-4
-8
-7
-8
-8
-7
-7
-7
-2
0
4
-2
0
3
-1
0
-5
-1
1
7
1
3
7
8
9
6
1
0
-5
-2
-4
-7
-5
-10
-10
-12
-14
-12
-10
-9
-5
-4
-2
-1
-2
-1
-4
2
-4
-2
-5
4
12
18
27
28
28
11
-4
-37
-74
-124
-181
-229
-241
-207
-148
-96
-53
-26
-5
7
19
27
28
31
30
31
32
31
30
31
34
33
34
30
28
27
19
21
16
17
15
17
13
16
13
7
7
6
4
2
1
-1
-3
-3
-6
-9
-8
-7
-5
1
-3
4
-1
3
2
2
3
-1
-7
-6
-5
-6
-10
-9
-13
-12
-9
-6
-5
-5
-5
-5
-5
-5
-9
-7
-8
-7
-5
-7
-6
-5
-7
-9
-4
-5
-8
-8
-4
-1
-2
0
0
2
-1
0
-5
0
2
0
-1
2
1
3
4
5
1
4
6
4
5
2
0
-7
-7
-7
-11
-9
-15
-17
-16
-13
-14
-10
-7
-6
-5
-6
-5
-2
-3
-6
-4
-4
-7
-3
-4
7
15
22
28
23
14
-10
-40
-85
-131
-177
-219
-222
-188
-137
-87
-53
-23
-7
9
12
19
23
26
28
29
32
29
28
28
27
24
24
23
26
21
20
18
15
18
16
18
13
15
10
12
7
6
6
4
2
-3
-3
-2
-7
-5
-6
2
-6
0
-2
-2
-3
-3
0
-5
-4
-6
-11
-7
-4
-8
-12
-9
-10
-10
-15
-17
-13
-13
-14
-15
-17
-15
-15
-16
-17
-13
-13
-11
-9
-11
-9
-11
-10
-9
-10
-5
-10
-7
-9
-7
-6
-6
-4
-7
-5
-7
-7
-9
-9
-7
-5
-5
-4
-2
-3
-4
-5
-7
-6
-10
-10
-11
-10
-12
-19
-20
-25
-23
-24
-19
-19
-16
-16
-15
-12
-17
-13
-15
-14
-12
-12
-11
-10
-5
5
16
23
21
12
-7
-40
-81
-132
-176
-224
-239
-207
-152
-104
-64
-39
-20
-7
6
9
13
13
15
18
15
20
17
18
17
15
16
14
14
12
12
12
9
10
7
7
2
3
0
0
3
-3
4
-3
-4
-6
-6
-7
-9
-8
-4
-7
-5
-5
-7
-7
-8
-8
-11
-8
-11
-8
-10
-13
-12
-16
-14
-21
-22
-23
-23
-21
-22
-22
-22
-21
-19
-17
-17
-17
-12
-14
-9
-11
-11
-13
-9
-9
-9
-9
-5
-4
-4
0
-3
2
-2
-2
-4
-5
-6
-4
-4
1
1
3
3
5
1
3
4
2
5
3
3
-3
-6
-5
-10
-10
-14
-13
-12
-12
-12
-11
-7
-10
-5
-7
-3
-4
-4
-7
-9
-9
-8
-5
3
15
25
34
35
29
8
-25
-60
-115
-166
-217
-237
-215
-165
-113
-73
-42
-21
-4
7
14
19
25
25
23
25
27
26
28
28
28
26
29
26
26
27
23
24
19
17
16
18
15
18
14
9
11
9
8
6
6
5
5
4
3
3
3
6
3
5
4
4
3
3
6
4
5
-1
-3
-3
0
-8
-6
-4
0
-2
-5
-3
-6
-5
-8
-8
-3
-3
1
0
4
4
4
2
2
2
6
-1
6
1
4
5
2
10
3
7
4
5
6
9
8
7
5
9
9
8
9
11
8
11
9
10
7
5
2
4
4
-4
-4
-9
-11
-7
-10
-7
-2
1
3
0
3
1
-1
3
-1
2
-1
2
7
14
23
32
35
32
15
-9
-41
-84
-135
-193
-229
-230
-188
-137
-90
-49
-22
-4
14
21
28
29
34
33
37
37
37
36
37
33
34
34
34
33
32
32
31
30
28
26
26
22
20
19
16
18
16
16
12
14
9
9
7
11
9
12
8
11
3
7
7
7
7
6
9
9
8
8
5
3
1
2
1
-5
-3
-4
0
-7
-4
-6
-2
-7
-5
-5
0
-2
1
2
1
2
1
1
-1
6
1
4
4
4
4
5
8
6
8
5
8
7
8
8
9
10
12
13
13
9
10
10
5
4
1
0
-5
-8
-10
-12
-10
-9
-5
-1
-1
0
1
5
1
4
3
1
-1
2
0
6
16
24
36
36
35
21
-8
-41
-94
-145
-198
-236
-234
-190
-133
-86
-43
-15
1
18
23
29
29
33
34
37
34
33
34
35
34
35
37
35
33
33
31
30
27
28
26
27
22
19
19
17
15
12
14
10
9
7
7
5
5
2
2
0
4
5
3
5
5
7
4
3
2
4
-3
-5
-6
-6
-10
-9
-12
-11
-16
-15
-17
-21
-17
-21
-24
-25
-20
-14
-15
-9
-9
-6
-4
-9
-7
-6
-8
-9
-7
-6
-6
-11
-12
-11
-6
-9
-9
-8
-6
1
7
10
8
9
5
4
2
-4
-5
-10
-5
-11
-8
-10
-10
-13
-7
-7
-11
-6
-5
-1
0
3
-1
1
-1
1
0
5
3
12
20
34
42
39
29
10
-24
-69
-119
-171
-211
-229
-202
-152
-103
-61
-31
-5
15
23
32
34
39
34
27
23
26
27
27
27
30
35
40
38
36
31
24
18
20
15
20
19
17
11
9
13
17
19
15
11
4
3
0
-6
2
-4
-1
4
6
5
7
9
4
3
2
6
7
3
4
-1
1
-2
-4
-9
0
-4
-9
-7
-5
-8
-7
-9
-8
-11
-13
-9
-7
-8
-9
1
-5
-2
0
-3
3
-2
0
4
4
-1
-2
-2
4
3
6
6
6
3
3
12
10
7
1
8
4
2
3
-4
-4
-11
-13
-13
-6
-6
-2
-6
-7
-6
-5
1
2
-2
-7
-7
-5
-7
-3
-7
-2
0
-3
6
13
21
21
14
-5
-33
-85
-129
-184
-233
-262
-239
-182
-122
-70
-29
-7
10
18
19
17
20
26
24
27
26
24
24
19
16
15
16
19
20
17
24
17
12
3
2
-5
-1
1
1
-7
-6
-3
0
-5
-5
-9
-12
-8
-10
-10
-11
-7
-12
-8
-6
-12
-13
-15
-21
-19
-4
-1
0
1
-4
-17
-18
-18
-13
-13
-11
-15
-11
-8
-13
-13
-15
-15
-16
-13
-14
-10
-13
-12
-14
-13
-17
-20
-17
-13
-14
-12
-16
-16
-19
-19
-21
-18
-9
-11
-8
-11
-9
-10
-13
-12
-13
-10
-19
-23
-25
-24
-23
-20
-16
-14
-18
-21
-25
-24
-20
-13
-17
-18
-14
-12
-20
-28
-29
-22
-17
-10
-13
-10
-2
11
21
17
4
-20
-59
-119
-177
-241
-286
-287
-237
-172
-123
-77
-44
-21
-3
9
18
17
21
19
18
17
21
24
21
18
10
14
20
16
12
9
9
7
9
7
8
8
7
7
6
1
1
-5
-9
-9
-12
-15
-13
-16
-12
-9
-9
-4
0
-12
-9
-6
-6
-8
-9
-10
-8
-11
-6
-10
-8
-6
-7
-6
-12
-10
-14
-13
-11
-7
-3
-8
-12
-15
-13
-11
-10
-10
-7
-5
1
5
5
1
-7
2
0
2
-5
-5
-2
1
8
3
3
5
9
15
6
3
1
7
10
11
13
12
7
7
4
4
4
4
5
-1
-5
-6
-6
1
4
7
15
14
9
6
3
10
12
10
11
7
10
23
37
48
54
48
27
-4
-46
-108
-174
-239
-270
-251
-195
-126
-64
-24
0
14
26
36
45
49
43
44
41
43
41
45
42
43
40
39
35
42
40
38
33
34
27
27
30
31
30
23
20
20
16
14
15
17
13
13
11
16
16
16
5
7
6
12
13
12
11
11
16
8
9
7
7
11
11
14
10
-1
0
6
4
5
7
16
11
11
3
5
12
7
8
10
5
7
6
2
8
9
12
14
15
12
14
14
16
16
11
8
10
11
7
7
7
12
17
19
15
16
16
20
18
21
23
17
7
-2
-6
-7
-8
-9
-7
-6
4
2
5
4
7
9
5
5
4
4
-2
6
6
7
12
20
29
43
43
36
18
-7
-44
-88
-144
-201
-248
-246
-200
-146
-89
-48
-18
6
20
31
36
32
34
38
37
35
35
39
39
37
34
28
20
16
13
7
5
8
9
8
6
10
6
9
6
10
11
8
1
1
1
-1
3
-2
-4
-5
-3
1
-1
3
2
1
-2
-6
2
5
3
5
0
-3
-4
-5
-6
-8
0
4
3
-9
-10
-10
-9
-7
-5
-3
6
2
-6
-8
-11
2
1
-2
-8
-9
-4
-3
-4
-7
-4
-5
-4
-10
-9
-9
-3
-5
-5
-5
0
-3
-1
0
-2
0
6
8
8
4
-4
-4
-6
-9
-6
-8
-7
-8
-13
-13
-13
-8
1
2
2
3
-1
6
7
5
3
-3
2
-1
4
8
17
24
38
39
37
20
-11
-45
-95
-154
-215
-255
-246
-204
-153
-99
-52
-26
-2
16
29
30
34
31
30
32
35
35
33
30
33
36
36
32
32
34
36
29
29
23
24
21
20
13
16
7
15
11
8
3
0
1
6
3
4
-3
1
1
-3
1
-2
3
2
0
0
-3
2
2
0
-5
-4
-2
-2
-3
-7
-6
-3
-3
-5
-6
-6
0
2
-1
0
4
4
0
-7
-9
-2
-2
1
-2
-2
-3
1
1
7
0
-3
-3
3
4
2
7
5
2
1
1
5
5
5
5
6
10
7
9
6
7
5
7
-5
-9
-11
-10
-12
-14
-12
-13
-10
-9
-5
-7
-4
-8
-8
-7
-10
-7
-3
-8
-4
-3
6
17
34
40
39
23
3
-29
-71
-124
-186
-237
-254
-218
-169
-113
-81
-49
-29
-9
5
11
10
12
22
24
28
23
27
25
25
25
16
14
16
15
11
10
9
7
5
7
4
3
1
5
-3
0
0
-4
-3
-3
-5
-5
-6
-5
-13
-14
-21
-17
-18
-14
-15
-11
-6
-6
-6
-12
-4
-10
-7
-11
-10
-17
-12
-10
-9
-9
-10
-5
-4
-7
-9
-7
-5
1
-3
-5
-6
-3
-1
-3
-4
-4
0
2
-5
-2
-3
-4
2
2
5
6
9
11
5
-2
-7
-3
4
5
2
3
6
10
9
5
7
11
14
8
4
4
6
1
-5
-12
-10
-9
-11
-9
-9
-6
-4
-1
1
3
1
3
-3
-8
-8
-4
-4
-1
0
1
12
27
35
32
22
2
-24
-73
-134
-209
-279
-321
-306
-243
-168
-99
-47
-12
6
13
15
19
28
24
14
15
27
33
28
31
29
24
20
13
13
19
23
17
10
7
0
3
-3
-3
-4
-3
2
6
-7
-13
-14
-13
-14
-18
-18
-22
-22
-23
-17
-12
-15
-15
-22
-29
-29
-20
-17
-8
-16
-21
-22
-21
-22
-21
-13
-11
-12
-15
-17
-21
-9
4
-4
-13
-17
-3
-4
-1
-4
-7
-8
-3
-9
-10
-9
0
4
2
-4
-5
-5
-3
3
1
4
1
0
-3
0
2
9
4
-4
-6
0
7
16
15
6
1
2
10
14
10
18
11
6
3
10
6
7
4
-3
-10
-21
-17
-4
1
2
-2
4
10
12
7
1
1
-2
3
8
12
12
25
44
47
39
21
5
-29
-78
-143
-208
-263
-283
-254
-198
-128
-64
-18
7
20
33
39
40
38
35
37
42
44
36
32
40
44
36
32
30
33
40
40
39
31
27
34
36
21
14
15
21
22
12
6
3
16
12
8
-3
3
14
17
13
1
-1
0
2
-5
-7
0
8
10
4
0
1
4
4
-3
-4
1
6
7
5
0
-2
5
14
16
7
10
9
11
2
-1
2
10
14
8
2
-7
5
15
10
6
12
15
12
13
6
7
7
9
5
2
5
7
-2
-2
-1
11
11
9
7
12
8
15
15
12
12
8
9
10
4
-6
-8
-11
-12
-6
-5
-4
-6
-3
-6
-8
-7
2
-1
-4
-11
-13
-9
-4
-2
-9
-3
5
13
24
29
37
33
18
4
-28
-66
-125
-190
-245
-273
-244
-190
-127
-76
-44
-19
4
20
14
10
28
37
33
29
31
31
32
21
23
28
28
28
22
16
13
13
21
21
19
10
12
13
11
10
1
4
0
-5
-6
-11
-13
-10
-11
-6
-9
-4
-9
-11
-14
-11
-8
-3
-5
-8
-14
-14
-12
-10
-7
-6
-6
-9
-10
-9
-5
-9
-2
-3
2
1
0
-3
3
3
-2
-2
-3
-5
1
8
9
3
-2
-5
-6
-5
-10
-7
-2
0
-2
3
3
2
4
0
1
-4
-9
-4
-3
3
6
12
6
6
5
9
5
7
2
8
6
2
2
-7
-9
-11
-15
-17
-16
-13
-8
-4
2
2
2
-10
-12
-12
-8
-5
-1
-5
-2
1
11
19
35
35
26
3
-24
-67
-125
-187
-245
-280
-264
-207
-147
-97
-51
-21
5
17
18
19
27
27
30
32
32
26
17
14
9
15
25
30
28
17
15
17
13
15
10
9
9
5
-2
0
-2
8
-2
-5
-10
-8
-1
5
1
-13
-20
-17
-16
-14
-14
-11
-7
-4
-15
-13
-12
-4
-4
-5
-9
-4
0
-3
-8
-10
-7
-3
1
-4
-17
-13
-11
-5
-4
-3
-4
2
1
-2
-1
5
5
-3
-9
-4
3
8
-3
-7
-6
-6
-3
4
-3
0
7
11
5
3
-1
3
10
11
5
3
3
4
11
5
6
8
10
19
13
11
10
6
4
0
4
-2
-9
-11
-18
-12
-6
-1
-5
-9
-8
-2
1
4
3
1
1
-4
-3
-5
-2
4
15
27
33
39
34
22
0
-45
-93
-153
-216
-281
-309
-289
-223
-148
-85
-42
-9
16
30
34
34
34
41
44
43
39
40
40
47
43
38
35
36
41
43
38
30
24
26
22
17
10
13
19
19
9
6
3
10
5
2
3
4
4
3
-5
-5
-7
1
-2
0
-5
-4
-6
-6
-9
-6
-7
-7
-9
-10
-7
-9
-9
-10
-8
-12
-8
-12
-10
-12
-18
-13
-10
-10
-9
-11
-9
-11
-6
-5
-4
-9
-9
-6
-11
-11
-15
-15
-10
-8
-8
-11
-8
-8
-12
-14
-6
-6
-10
-10
-10
-7
-4
-5
-3
-5
-5
-9
-8
-9
-6
-5
-3
4
2
3
-5
-9
-15
-14
-19
-18
-20
-20
-20
-21
-22
-18
-15
-8
-7
-12
-12
-13
-11
-8
-10
-10
-14
-13
-15
-6
8
22
29
26
14
-9
-43
-89
-150
-217
-278
-314
-286
-218
-152
-86
-46
-14
3
12
18
20
27
31
31
29
25
26
28
26
22
24
20
22
21
20
23
18
21
18
17
14
13
9
8
4
3
-1
0
-4
-4
-1
-5
-6
-9
-9
-9
-13
-13
-6
-10
-17
-13
-12
-11
-6
-6
-8
-8
-6
-8
-8
-8
-11
-14
-13
-8
-11
-12
-13
-14
-7
-5
-5
-4
-3
-4
-4
0
6
5
1
-2
-5
-5
0
-4
-4
-7
-6
-5
0
2
7
5
4
4
3
7
6
7
5
9
5
10
11
12
9
7
14
13
16
13
17
15
7
5
3
4
0
-2
-3
-7
-7
-5
-5
1
-3
2
4
3
4
4
4
2
5
4
3
4
5
5
11
14
28
35
44
44
24
-7
-41
-96
-159
-227
-273
-273
-221
-150
-93
-49
-20
3
22
33
37
39
39
41
41
44
38
37
35
39
39
40
40
37
35
34
33
26
24
23
23
19
20
19
21
17
17
12
12
13
10
8
5
6
7
8
-1
0
-1
4
1
3
-3
4
7
1
0
-2
2
2
0
-4
-8
-4
-6
2
2
3
1
2
3
7
6
5
2
1
3
-1
-1
6
2
3
8
4
4
5
5
7
7
8
2
6
6
8
8
4
7
1
8
4
8
8
6
8
9
10
12
14
14
16
13
9
9
10
17
13
16
10
12
6
3
5
4
1
-5
-6
-7
-4
-6
-5
-9
-3
1
1
-2
2
-3
0
4
0
1
1
-3
2
5
16
31
36
39
33
10
-19
-59
-109
-175
-243
-279
-264
-196
-137
-85
-40
-15
6
19
30
33
35
39
39
39
38
37
38
31
34
32
30
31
29
28
28
26
23
23
19
19
20
21
18
14
13
14
5
9
7
8
5
4
5
6
2
-1
-2
-5
-2
-4
-6
-6
-2
-5
-3
-2
-2
-1
-6
-9
-11
-10
-11
-5
-4
-9
-12
-5
-1
3
6
0
-6
-5
-3
-1
-4
2
2
1
-4
-3
0
1
1
3
-2
1
0
1
1
-1
1
0
3
3
2
2
8
5
4
5
4
5
2
2
5
5
4
0
6
4
3
3
6
11
11
6
7
3
2
0
-7
-11
-17
-14
-16
-18
-15
-13
-10
-10
-8
-10
-8
-6
-2
-4
-6
-8
-10
-9
-10
-4
1
10
21
28
29
26
5
-22
-61
-114
-171
-241
-285
-275
-226
-158
-101
-55
-24
-5
14
22
30
28
31
33
31
32
32
32
30
28
29
26
27
24
23
23
23
27
24
18
16
12
12
10
7
7
4
3
1
1
3
0
-4
-6
-13
-14
-8
-7
-5
-8
-8
-8
-6
-2
-4
-8
-8
-8
-8
-10
-6
-10
-13
-11
-13
-6
-8
-6
-7
-8
-9
-10
-11
-13
-13
-12
-10
-11
-8
-8
-7
-9
-6
-8
-6
-8
-6
-2
-6
-2
3
1
0
-3
-4
-7
-5
0
1
-4
-1
0
-1
2
4
1
0
-2
0
0
1
5
6
8
6
7
8
7
0
-2
-5
-6
-6
-7
-7
-13
-16
-12
-14
-13
-14
-13
-13
-13
-9
-11
-9
-5
-6
-4
-5
-4
-5
-4
2
9
21
31
34
27
4
-29
-73
-127
-188
-250
-279
-259
-197
-132
-82
-43
-18
1
14
22
27
28
27
28
30
28
33
32
27
25
26
23
26
22
24
25
25
21
15
13
7
7
11
11
6
5
5
5
10
1
1
-4
-2
-2
0
-7
-4
-6
-5
-7
-10
-7
-6
-6
-2
-4
-4
-1
-5
-5
-10
-8
-9
-6
-7
-6
-9
-5
-5
1
-3
-2
-4
-5
-3
-2
-5
0
-4
-1
-2
1
-1
-3
0
-3
2
4
3
0
1
2
3
8
7
3
2
1
5
2
5
3
5
3
9
8
5
4
4
5
7
12
15
12
11
12
9
6
3
2
2
1
2
-5
-8
-11
-7
-9
-14
-11
-13
-8
-5
-6
0
-6
-5
-3
-1
-1
-4
-3
-6
-2
4
11
23
36
37
33
13
-8
-47
-95
-154
-218
-260
-266
-219
-157
-103
-61
-33
-8
12
18
27
27
31
27
30
30
31
34
31
31
29
28
27
23
22
24
26
23
22
16
16
14
15
11
13
13
13
6
4
1
2
1
-2
0
-4
-5
-5
0
0
2
0
-3
-2
-8
-5
-9
-5
-6
-5
-3
-5
-7
-4
-9
-4
-9
-9
-6
-8
-7
-1
1
2
-5
-5
-3
-9
-6
-8
-7
-5
-2
0
-2
-3
2
4
2
2
-5
-4
-2
3
5
8
-3
0
-4
-4
-2
-4
-4
-4
2
-1
0
4
3
6
6
5
7
5
8
8
12
10
8
3
4
5
4
-1
-2
-9
-6
-7
-13
-11
-15
-15
-11
-11
-8
-6
-8
-6
-2
-4
-5
-5
-5
-3
-4
-3
2
16
24
34
31
22
4
-30
-71
-122
-188
-245
-277
-246
-183
-132
-80
-42
-15
5
17
24
34
30
32
31
29
31
31
27
29
28
31
28
29
28
25
19
21
17
18
18
16
16
12
9
10
13
14
8
4
-2
0
-5
-4
-2
-2
-4
0
-8
-9
-10
-9
-4
-6
-2
-5
0
-5
-11
-3
-5
-4
-8
-8
-11
-13
-10
-9
-2
-8
-8
-5
-14
-9
-8
-8
-12
-9
-11
-8
-10
-7
-8
-5
-5
-6
-4
-5
-5
-5
-5
-5
-5
-7
0
0
0
-5
-5
-3
0
2
-4
-3
-7
-3
-2
-3
1
-2
-5
-1
-1
1
6
7
7
4
0
-1
3
8
3
1
-8
-11
-12
-16
-14
-17
-22
-16
-15
-7
-9
-11
-10
-9
-11
-9
-9
-5
-8
-9
-6
-7
-1
4
16
24
29
28
11
-12
-43
-90
-142
-212
-273
-284
-246
-181
-123
-75
-40
-15
1
20
29
26
26
25
26
27
27
25
28
26
23
29
26
27
24
24
17
13
16
18
19
15
11
9
8
9
7
4
3
-2
-1
-2
-3
-3
-5
-5
-1
-3
-6
-9
-9
1
0
-1
-5
-6
-7
-6
-7
-7
-10
-6
-11
-7
-7
-8
-6
-7
-6
-10
-7
-11
-4
-8
-11
-9
-5
-7
-3
-4
-4
-2
-3
4
2
3
5
-3
0
-3
-3
-3
-5
0
-3
1
3
-1
6
1
6
5
3
1
5
5
4
2
7
5
6
12
8
6
13
12
14
11
9
5
4
3
1
-4
-6
-10
-10
-12
-9
-10
-8
-8
-8
-8
-5
-4
-3
-5
-3
1
5
2
1
3
3
9
20
29
39
40
33
14
-22
-73
-131
-190
-250
-280
-254
-186
-123
-73
-35
-12
4
20
26
27
34
36
33
35
37
37
36
36
32
29
31
31
31
32
27
25
23
24
20
17
13
16
15
15
11
12
6
3
7
8
4
4
4
1
-3
-3
3
6
1
2
2
-6
-5
-3
3
12
8
2
2
1
4
8
7
0
-2
-3
2
3
10
14
8
8
9
7
4
1
3
5
4
3
4
2
-2
2
3
4
6
8
3
-1
2
3
4
3
7
6
8
9
7
7
10
8
8
10
18
22
20
21
18
14
11
16
11
16
14
18
16
16
15
16
14
10
13
11
8
4
2
0
-1
3
-7
-11
-14
-16
-13
-9
-5
-4
-7
-7
-4
-5
-7
-7
-9
-6
-5
-2
4
14
25
36
33
23
-5
-30
-70
-131
-192
-246
-269
-238
-184
-130
-81
-43
-17
0
9
16
22
24
26
28
31
32
31
31
31
34
30
32
29
27
27
32
27
24
20
17
16
16
14
9
11
12
6
7
3
4
-1
1
-2
-6
-3
-6
-5
0
1
0
4
4
6
8
4
1
3
6
1
-3
0
-4
-9
-10
-8
-8
-10
-10
-9
-7
-9
-9
-8
-7
-13
-12
-15
-9
-7
-11
-10
-6
-5
-7
-7
-8
-4
-1
1
2
2
-2
-6
-6
-2
0
-6
-9
-8
-8
-7
-10
-13
-2
-2
-2
0
-2
3
7
1
3
-3
-1
0
-1
3
6
5
3
1
1
1
-2
-5
-3
2
-3
-9
-9
-13
-15
-10
-14
-12
-18
-14
-13
-10
-9
-8
-11
-11
-9
-6
-12
-7
-9
-10
-11
-8
4
11
19
24
15
-3
-29
-68
-114
-164
-217
-256
-254
-214
-154
-103
-61
-33
-12
3
14
22
22
23
24
26
28
19
21
24
23
27
30
31
28
20
17
15
14
14
12
8
7
6
2
1
4
6
6
-5
0
-3
-4
-7
-9
-5
-9
-7
-7
-3
-6
-10
-7
-7
-7
-9
-7
-4
-9
-11
-11
-12
-15
-17
-16
-14
-14
-16
-17
-15
-15
-14
-9
-12
-18
-14
-19
-19
-16
-14
-13
-15
-19
-15
-18
-14
-13
-14
-16
-15
-15
-15
-15
-13
-13
-14
-19
-15
-13
-11
-11
-10
-5
-5
-10
-12
-10
-13
-9
-13
-10
-13
-11
-14
-12
-9
-5
-3
-5
2
-5
-9
-7
-9
-7
-3
-1
4
4
1
1
1
-6
-9
-12
-16
-17
-22
-21
-17
-15
-18
-13
-13
-7
-7
-11
-9
-12
-11
-9
-11
-9
-7
-6
0
4
10
26
27
32
14
-14
-42
-92
-145
-195
-235
-245
-212
-158
-104
-68
-37
-10
3
16
24
27
32
25
28
26
29
32
33
33
31
27
23
28
22
23
25
19
22
19
18
15
13
11
13
12
5
0
-2
-2
-1
3
4
1
-2
-4
-6
0
-1
-2
1
3
5
2
-2
-4
-3
-3
0
-4
-8
-5
-2
-7
-11
-8
-8
-6
-4
-5
-4
-6
-7
-12
-12
-11
-5
-5
-6
-3
-3
-4
2
3
2
2
2
-2
-7
-9
-2
2
1
0
2
4
0
2
1
1
2
-1
1
-1
-2
-2
0
4
2
6
11
11
8
3
4
5
5
9
16
15
12
10
11
16
13
8
7
3
-5
-7
-5
-5
-7
-6
-9
-6
-7
0
-1
1
2
4
5
10
5
2
-3
0
-5
2
6
17
30
41
37
23
3
-30
-70
-115
-171
-221
-247
-223
-174
-115
-61
-32
-10
10
17
28
32
34
35
34
34
38
35
35
33
34
34
31
29
32
25
27
25
26
20
18
16
14
19
22
17
17
12
10
9
9
5
3
2
-3
-3
-1
-2
-5
-1
6
4
5
6
8
5
1
2
4
0
-5
-3
1
-1
0
-4
-6
-7
-6
-2
-6
1
6
3
3
4
2
4
-1
0
-3
1
-3
2
3
3
-2
-4
1
7
6
5
6
5
1
1
1
0
5
3
9
9
6
7
7
7
6
6
-3
-9
4
6
10
11
6
4
5
3
5
10
6
6
0
2
4
6
11
3
-1
-4
-4
-6
-9
-9
-6
-12
-15
-16
-12
-9
-5
-5
-6
-9
-11
-8
-10
-15
-17
-12
-6
-9
-6
8
14
22
22
18
1
-24
-63
-112
-164
-212
-253
-255
-212
-156
-104
-63
-33
-15
0
11
17
19
28
26
26
24
23
22
21
20
19
20
19
21
17
17
19
15
17
16
16
12
5
6
5
5
5
2
-1
-5
-11
-12
-8
-5
-4
-4
-4
-7
-5
1
1
-5
-5
-8
-11
-5
0
-1
-7
-9
-4
-10
-7
-5
-6
-7
-13
-13
-10
-5
-5
-4
-7
-5
-6
-9
-6
-7
-4
-9
-15
-11
-10
-13
-13
-8
-7
-6
-2
0
-5
-6
-12
-11
-9
-8
-7
-4
2
-5
-6
-10
-10
-7
-3
-8
-4
-7
-1
-4
-4
-6
-9
-12
-12
-9
-8
-3
-3
-1
-3
-1
4
-2
0
3
2
-6
-8
-11
-16
-23
-20
-21
-20
-19
-17
-14
-17
-12
-17
-12
-9
-8
-14
-16
-7
-8
-6
-5
-9
-7
8
16
24
28
21
-2
-27
-73
-125
-174
-222
-251
-236
-187
-128
-79
-43
-22
-3
7
11
17
19
22
25
25
26
27
32
36
32
29
26
25
21
22
17
19
15
17
20
25
19
11
8
8
5
3
7
8
8
10
2
-3
-5
-7
-2
-3
2
0
1
-4
-4
-4
-4
-6
-4
0
-4
-6
-6
-7
-3
-4
-8
-7
-4
-9
-9
-7
-5
-6
-9
-5
-5
-2
2
4
5
2
2
-5
-4
-1
5
3
5
1
3
1
5
9
7
1
3
3
4
7
5
8
6
8
7
9
9
6
6
6
5
6
9
11
16
14
12
10
12
9
9
7
7
10
7
6
2
-2
0
-4
1
-2
-3
-5
-6
-4
0
-3
-1
0
4
0
0
5
0
3
4
1
8
15
23
28
34
27
17
-12
-49
-90
-143
-195
-232
-232
-194
-136
-89
-49
-24
-3
10
18
27
32
33
36
36
37
38
37
36
35
37
36
33
30
29
33
28
28
26
26
19
23
19
19
19
22
21
16
13
11
14
8
4
8
6
4
5
8
6
3
6
9
5
9
12
12
8
6
10
7
5
6
5
6
1
3
3
3
4
0
0
4
0
0
-2
6
6
6
5
2
6
4
2
-2
1
1
1
4
2
4
3
6
4
-2
-1
-2
-2
4
2
0
-4
-6
-1
2
1
4
3
4
2
7
7
9
5
8
3
3
5
-1
-6
-3
8
5
1
-5
-9
-12
-14
-18
-19
-13
-9
-6
-9
-9
-8
-9
-10
-10
-7
-7
-11
-12
-15
-15
-14
-3
1
12
23
24
20
3
-18
-47
-84
-134
-188
-233
-240
-206
-151
-105
-59
-28
-11
3
10
19
21
23
23
26
29
27
28
20
19
23
26
28
27
24
20
14
14
11
14
12
11
5
-4
-5
3
13
11
8
2
-3
-5
-7
-9
-6
-12
-8
-6
-5
-9
-13
-12
-9
-5
0
-5
-4
-4
-6
-13
-16
-19
-14
-12
-13
-16
-22
-22
-21
-14
-16
-17
-20
-19
-21
-21
-15
-18
-12
-12
-15
-11
-12
-11
-13
-13
-11
-13
-14
-15
-10
-8
-6
-7
-2
-2
-5
-5
-10
-7
-8
-5
-7
-9
-9
-6
-5
-1
-1
-4
-7
-11
-9
-7
-8
-11
-11
-14
-17
-17
-16
-22
-19
-12
-9
-10
-9
-10
-6
-6
-9
-9
-7
-9
-17
-19
-17
-8
4
12
24
32
32
19
-2
-38
-81
-136
-198
-255
-281
-247
-176
-112
-63
-27
-1
4
8
19
33
37
36
39
35
37
36
32
32
29
30
28
30
27
29
28
23
18
25
37
37
35
36
29
26
20
23
16
9
4
3
3
7
4
3
8
10
2
5
11
16
9
7
8
6
5
6
5
8
-1
-10
-10
-17
-19
-10
-7
-6
-8
-9
-12
-12
-8
-5
-5
-6
-2
0
-7
-10
-7
-10
-15
-15
-4
-5
-6
-3
2
6
1
-1
1
-4
-4
-1
6
5
8
5
2
-7
-3
-6
2
1
6
3
1
4
8
4
-5
-4
0
2
5
-1
4
5
4
1
1
-1
-7
-12
-25
-28
-26
-26
-22
-16
-15
-17
-7
-5
-7
-12
-12
-6
0
-2
2
2
3
13
30
37
35
24
-4
-47
-102
-164
-231
-293
-322
-285
-215
-149
-88
-45
-16
1
9
18
23
32
41
45
39
41
34
25
22
21
24
28
26
23
27
31
25
24
20
16
20
16
6
3
6
14
14
9
-3
-11
-7
-8
-7
-5
-4
-8
-6
-6
2
9
12
13
7
3
1
-7
-6
-13
-21
-19
-14
-15
-12
-18
-14
-19
-16
-15
-8
-9
-8
6
5
3
-6
-12
-14
-17
-21
-20
-15
-15
-7
-12
-10
-15
-12
-16
-13
-11
-6
-11
-3
2
1
5
0
-7
-8
-17
-16
-9
2
9
9
-3
-11
-13
-13
-11
-5
0
5
8
1
9
7
0
-9
-14
-14
-15
-15
-17
-17
-12
-10
-7
-13
-9
-11
-8
-11
-9
-5
-5
-6
-4
0
3
8
19
23
30
29
21
13
-12
-52
-97
-152
-208
-260
-283
-251
-193
-124
-68
-20
3
14
16
20
27
28
33
33
29
34
33
39
37
33
33
36
38
39
39
36
28
25
20
21
19
20
15
8
20
22
15
17
11
15
13
13
9
13
15
7
8
4
5
13
18
17
18
9
4
1
1
4
11
5
4
1
-2
-3
-4
-1
3
3
8
3
3
-3
-3
3
6
9
3
3
3
-1
-5
4
4
4
2
-2
-7
-4
0
3
8
5
6
3
0
-5
-5
-6
3
12
16
10
4
4
8
7
6
7
15
20
17
16
10
13
8
7
3
4
-1
-5
-8
-14
-12
-14
-8
-6
-3
0
9
8
7
3
3
-1
4
1
-6
-7
-9
0
10
19
29
31
27
11
-18
-53
-107
-164
-216
-260
-259
-217
-152
-94
-49
-15
5
18
23
29
34
34
39
37
35
39
37
37
39
34
33
29
28
26
25
30
25
25
21
23
21
20
18
17
11
12
10
10
2
0
0
-2
4
-3
-2
-4
-5
-6
-7
-6
-4
2
0
-1
-1
1
0
-3
-4
-2
-5
-6
-7
-10
-15
-10
-8
-14
-14
-17
-13
-5
1
0
-5
-1
-4
-4
-2
-5
-4
-7
-11
-8
-9
-7
-7
-9
-4
-8
-3
-3
2
2
2
4
-2
2
1
1
-3
2
5
8
10
11
12
13
11
8
5
5
2
6
3
-2
-6
-7
-7
-7
-6
-4
-1
0
1
3
5
7
1
0
-3
-3
1
-5
-4
-3
-1
11
20
37
38
32
11
-17
-60
-113
-165
-219
-260
-253
-202
-141
-91
-51
-21
-2
15
25
35
43
48
43
39
37
36
39
40
40
35
29
20
20
19
17
23
23
25
21
19
15
14
9
8
9
8
10
10
6
10
12
7
3
4
2
4
1
1
2
2
4
-5
-3
-2
0
1
3
4
0
-1
-3
-5
-3
-3
2
-3
-5
-3
-4
-5
3
11
7
7
-2
1
4
3
1
1
2
-2
-3
1
6
5
4
5
10
4
7
0
0
6
9
5
8
7
7
7
11
10
14
13
11
11
14
17
11
15
17
18
14
14
9
8
2
-1
1
-7
-2
-6
-5
-4
-7
-4
-3
-1
7
8
5
2
-4
-4
-4
-4
-1
2
9
16
24
33
32
24
8
-19
-59
-112
-169
-229
-268
-256
-209
-146
-89
-44
-16
6
18
27
31
32
37
33
36
33
34
33
32
32
36
32
32
29
32
25
23
24
19
21
22
16
20
16
14
10
8
7
4
6
4
2
-2
-2
-3
-5
-5
-6
-6
-6
-4
-7
-7
-5
-5
-9
-4
-9
-8
-9
-11
-12
-9
-12
-10
-14
-15
-13
-12
-12
-10
-13
-8
-8
-7
-6
-4
-9
-9
-11
-15
-10
-10
-11
-11
-9
-13
-9
-14
-11
-9
-8
-5
-9
-8
-8
-8
-8
-6
-4
-5
-4
-1
0
-1
-1
0
2
3
-1
1
-5
-2
-9
-8
-11
-10
-13
-17
-15
-19
-14
-13
-12
-9
-12
-8
-11
-7
-11
-13
-10
-13
-15
-13
-14
-8
-4
5
16
23
17
8
-18
-48
-93
-143
-199
-244
-268
-236
-184
-128
-81
-52
-25
-8
1
11
12
20
20
23
23
22
25
23
21
18
20
17
19
18
13
15
12
15
12
10
7
3
3
1
1
1
-5
-5
-8
-8
-13
-15
-13
-14
-11
-15
-15
-13
-9
-13
-12
-13
-11
-9
-9
-9
-7
-7
-7
-8
-9
-13
-13
-15
-17
-21
-15
-14
-11
-13
-12
-11
-13
-11
-9
-12
-13
-8
-14
-12
-11
-9
-12
-8
-8
-9
-8
-5
-9
-5
-7
-4
-8
-5
-10
-6
-13
-11
-7
0
-2
-1
5
3
3
1
-1
0
-3
-2
-7
-7
-9
-13
-10
-12
-12
-14
-12
-15
-12
-11
-9
-6
-6
-10
-8
-9
-7
-4
-6
-7
-7
-7
-8
-1
12
19
25
29
18
-1
-30
-69
-119
-171
-225
-256
-241
-191
-134
-83
-43
-21
4
14
24
26
30
34
31
33
27
32
28
29
29
30
25
26
23
22
25
18
20
24
20
21
21
19
16
13
12
9
6
5
6
4
3
6
3
2
2
-1
1
4
2
1
4
6
8
6
8
4
2
0
-2
-1
-3
-4
-8
-7
-5
-7
-3
3
3
-1
2
-3
-5
4
4
8
1
-1
-5
0
1
4
9
10
6
3
4
1
7
16
16
11
11
8
8
6
6
6
6
7
11
13
13
12
14
12
12
13
10
6
6
7
5
6
3
-6
-3
-8
-4
-4
-3
-3
4
2
2
-3
0
1
4
10
3
1
4
1
0
0
2
14
24
31
33
32
16
-12
-44
-82
-129
-187
-223
-220
-197
-147
-101
-57
-27
-3
12
22
25
28
30
33
32
32
29
29
30
27
28
27
29
31
31
32
29
22
19
14
12
11
12
17
16
12
14
9
12
10
7
6
3
4
2
1
2
-1
-1
1
3
1
8
7
8
11
7
7
5
3
-3
-2
-5
-3
-8
-10
-11
-9
-8
-4
-5
-3
-6
-4
-10
-6
-9
-7
-10
-7
-5
-8
-8
-8
-7
-5
-3
-3
-4
0
-6
-3
-4
-4
2
4
2
-5
-2
-5
0
4
5
5
5
8
8
5
8
4
4
4
1
-5
1
-8
-9
-9
-10
-13
-13
-9
-7
-5
-1
4
5
-1
-4
-3
-5
-3
-2
3
6
7
14
24
27
26
19
-1
-27
-65
-104
-159
-213
-243
-225
-172
-119
-70
-38
-14
8
18
23
25
30
32
32
31
33
35
36
37
38
38
33
32
28
24
25
28
27
30
23
20
16
13
14
19
17
19
13
9
5
-2
-6
-4
0
-3
1
0
4
7
-2
-3
-4
-3
-2
-4
2
-3
1
1
-3
-6
-12
-15
-16
-16
-12
-11
-13
-12
-14
-14
-8
-4
-7
-12
-17
-21
-22
-17
-18
-16
-16
-15
-8
-14
-6
-8
-7
-7
-9
-10
-12
-11
-13
-9
-8
-5
-2
0
6
3
-1
1
2
3
-2
-8
-9
-11
-13
-9
-12
-14
-14
-16
-17
-17
-13
-12
-10
-10
-9
-9
-8
-9
-10
-7
-11
-15
-9
-8
-7
0
9
16
28
27
22
4
-22
-66
-110
-165
-211
-240
-227
-185
-128
-81
-49
-21
-1
13
18
25
25
28
27
30
29
28
27
27
29
28
36
36
31
29
26
20
19
17
19
16
16
13
9
8
8
5
8
5
7
6
4
3
1
-1
3
3
8
4
4
2
5
5
7
0
2
-4
-3
-5
0
3
-5
0
-2
1
1
2
4
0
-7
-11
-8
-5
-5
-2
4
4
3
0
1
1
-2
0
3
2
0
0
-3
-3
-9
-5
-10
-4
2
2
-1
6
2
4
8
14
22
22
21
19
11
6
6
3
4
2
-3
-3
2
-1
-2
-4
-6
-7
-7
-5
1
-3
-4
-6
-3
-4
-4
0
0
3
5
9
21
33
38
30
18
0
-30
-68
-114
-167
-218
-245
-227
-177
-122
-77
-40
-15
2
17
23
25
28
25
25
30
27
31
33
32
34
29
28
25
23
22
20
21
20
20
17
13
10
13
14
16
17
18
14
8
9
5
3
4
4
-1
0
2
4
4
1
2
4
8
6
10
8
2
3
2
4
-4
-14
-22
-15
-8
-9
-8
-12
-12
-15
-14
-12
-12
-12
-15
-16
-12
-15
-12
-11
-12
-8
-10
-12
-12
-11
-15
-17
-18
-12
-7
-7
-7
-8
-5
-6
2
-3
-3
4
1
-2
-3
0
-3
-7
-8
-13
-18
-15
-14
-17
-17
-15
-16
-19
-13
-11
-11
-11
-15
-8
-8
-13
-17
-18
-11
-8
-12
-13
-8
-1
11
17
21
25
11
-12
-40
-72
-119
-172
-220
-239
-213
-165
-113
-72
-35
-16
2
12
18
28
24
27
24
24
24
25
22
22
24
25
20
18
19
21
17
21
19
17
12
8
10
8
7
10
7
0
0
2
2
0
0
-5
0
-3
-5
-5
-7
-4
1
2
-3
-6
-5
-2
3
-3
-5
-3
-12
-14
-19
-11
-11
-11
-13
-15
-21
-22
-19
-19
-15
-15
-21
-17
-16
-8
-8
-9
-8
-13
-17
-12
-13
-11
-9
-6
-4
-7
-11
-8
-7
0
1
-4
-2
2
5
2
-5
-6
-7
4
4
1
5
-4
-4
-8
-17
-21
-20
-18
-20
-20
-17
-19
-20
-12
-12
-9
-6
-7
-5
-10
-11
-12
-13
-13
-6
-3
6
18
24
25
12
-10
-39
-79
-128
-185
-240
-269
-242
-185
-123
-70
-34
-10
4
13
20
19
17
22
20
20
28
27
28
23
23
18
18
15
17
11
6
8
4
4
8
9
10
11
9
5
8
13
8
-5
-8
-13
-9
0
2
-3
-4
-2
1
3
9
8
5
8
5
4
2
-5
-5
-5
-6
-7
-5
-7
-14
-20
-19
-19
-18
-16
-15
-17
-16
-11
-13
-16
-11
-10
-10
-13
-9
-11
-9
-11
-9
-11
-9
-4
-4
-2
1
-3
-5
-9
-13
-6
-4
-4
1
4
5
8
11
13
10
3
4
-4
0
-5
-7
-8
-14
-13
-15
-13
-12
-10
-9
-5
-1
1
5
4
2
-3
1
-1
1
8
15
23
29
29
19
-7
-29
-69
-118
-170
-218
-238
-216
-163
-113
-59
-24
-3
17
32
36
43
50
54
55
54
55
51
48
52
53
49
53
53
54
56
53
54
46
42
34
29
26
29
25
24
20
18
19
19
19
14
13
15
12
14
18
18
18
18
17
17
14
17
15
11
8
12
12
7
6
4
1
-2
-4
-5
-4
-11
-6
-3
-5
-6
0
0
-5
-5
-6
-3
1
-3
1
1
4
-2
-5
-4
-6
-5
1
-1
1
5
8
3
3
7
4
0
5
4
-4
-9
-12
-8
1
6
-5
-12
-22
-24
-16
-8
-11
-17
-18
-12
-8
-11
-3
-2
-3
-8
-13
-12
-16
-18
-19
-17
-5
9
19
23
20
8
-19
-56
-101
-150
-197
-230
-221
-174
-128
-100
-73
-45
-24
-3
7
10
8
16
20
17
24
27
21
9
-1
3
10
9
13
8
11
18
14
3
-1
-5
-7
-7
2
2
-2
-8
-12
-17
-13
-8
-7
-5
-2
-6
-11
-12
-7
-5
-5
-9
-11
-10
-9
-5
-4
-8
-14
-21
-23
-19
-13
-16
-14
-19
-24
-27
-22
-18
-16
-14
-15
-15
-21
-15
-14
-15
-10
-13
-12
-6
0
-1
-2
-5
-2
-6
-5
-6
-7
-4
-1
4
3
7
8
5
5
4
5
8
5
4
-7
-5
-6
-8
-4
-6
-3
-3
-3
-5
-7
-3
1
3
4
2
1
-1
4
4
4
8
6
13
20
32
39
39
28
7
-25
-72
-123
-180
-228
-250
-212
-146
-81
-47
-14
8
21
28
33
36
36
35
41
38
35
37
39
36
35
37
33
31
32
29
27
26
20
21
22
18
18
18
14
13
14
10
10
13
9
10
9
10
8
9
10
10
7
6
7
7
11
12
16
13
5
6
6
-1
0
1
0
1
-6
-5
-7
-5
-5
-5
-9
-7
-8
-8
-3
1
1
3
4
3
-1
4
2
5
3
2
4
8
7
6
6
9
9
8
12
11
10
12
14
14
10
9
7
6
5
3
2
-5
-5
-4
-5
-2
2
5
8
7
10
5
8
3
7
6
10
6
3
3
10
15
29
36
42
33
20
-8
-45
-92
-141
-196
-232
-224
-181
-129
-75
-41
-13
7
20
25
27
28
32
35
39
39
37
37
33
32
30
29
32
32
31
28
30
27
26
22
23
24
24
18
20
17
13
13
12
14
11
9
8
8
7
9
11
5
7
5
6
5
8
5
5
4
4
5
2
-3
1
-5
-4
-5
-8
-7
-10
-8
-6
-5
-9
-2
-2
-3
-2
0
-4
-5
0
0
-1
-4
-1
-1
-4
-5
-5
0
-2
1
1
2
-2
4
6
4
4
4
1
-1
-4
-5
-10
-8
-12
-15
-12
-13
-11
-11
-9
-7
-3
-6
-4
-4
-3
-9
-6
-7
-7
-7
-6
-5
8
17
25
32
31
22
-1
-33
-73
-117
-175
-222
-239
-213
-161
-107
-65
-35
-7
7
17
20
24
25
26
25
28
26
30
27
26
23
24
23
23
24
22
21
22
21
15
14
11
7
13
9
7
10
8
3
4
-1
0
4
0
-2
-3
-1
-5
-1
-3
-3
-1
-1
2
2
1
0
-1
-3
-7
-4
-6
-9
-13
-8
-12
-11
-12
-9
-9
-8
-15
-15
-12
-11
-8
-10
-13
-10
-11
-13
-10
-10
-8
-7
-10
-6
-6
-7
-7
-7
-9
-4
-7
-2
-3
4
0
-4
0
1
-4
-8
-8
-14
-11
-15
-14
-18
-14
-19
-15
-11
-6
-9
-4
-5
-8
-8
-7
-9
-8
-7
-7
-7
-5
-1
9
23
27
24
13
-11
-41
-80
-127
-183
-229
-249
-218
-161
-111
-64
-31
-9
2
15
19
22
25
25
28
31
27
26
28
26
24
24
20
19
20
21
16
13
12
10
12
11
13
11
10
5
-1
-5
-2
0
0
4
6
2
0
-2
-4
0
-4
-2
-6
-7
2
5
5
6
3
3
0
-2
-4
-12
-15
-10
-4
-9
-9
-12
-13
-17
-16
-19
-19
-13
-9
-8
-8
-6
-9
-6
-9
-14
-16
-15
-14
-9
-7
-6
-9
-10
-7
-7
-5
-2
-8
-13
-8
-8
1
-1
-3
-2
-1
2
-1
0
-4
-9
-15
-14
-9
-13
-16
-23
-21
-19
-12
-2
-3
1
1
-4
-6
-10
-14
-12
-6
-9
-10
-12
-5
5
15
26
29
26
12
-6
-29
-64
-111
-162
-207
-231
-204
-153
-107
-68
-44
-28
-8
7
25
31
30
26
30
23
26
30
31
31
29
24
21
26
28
25
25
18
18
17
17
18
15
17
13
10
7
11
5
3
2
-3
4
11
12
9
7
4
1
7
7
8
3
2
2
5
7
7
7
6
1
-11
-10
-9
-9
-7
-6
-5
-14
-18
-19
-15
-14
-12
-10
-12
-16
-13
-12
-8
-11
-17
-16
-14
-11
0
-4
-11
-11
-11
-9
-5
2
-6
-12
-9
-10
-10
-10
-8
-9
-4
-6
-8
-8
-7
3
4
-1
-7
-8
-11
-10
-8
-14
-15
-19
-22
-22
-23
-21
-18
-18
-16
-17
-17
-19
-20
-17
-10
-12
-12
-11
-11
-15
-11
-4
7
21
29
29
21
6
-25
-66
-122
-189
-246
-284
-272
-213
-143
-88
-50
-23
-3
9
17
19
20
25
29
28
27
27
23
27
27
25
22
13
13
16
16
14
12
16
15
11
11
14
9
7
9
0
2
-7
-8
-6
1
-5
-8
-16
-15
-15
-12
-11
-5
-9
-8
-5
-6
-2
-5
-6
-8
-11
-12
-14
-13
-19
-19
-17
-15
-11
-11
-4
1
-5
-15
-15
-14
-11
-11
-13
-13
-10
-5
-2
-8
-6
-4
-7
-4
2
-3
-5
-8
-9
-5
-3
-1
-2
0
-2
-2
-6
-4
-1
0
6
5
5
6
6
4
8
8
7
2
5
0
1
1
1
2
-5
-3
-3
-4
-6
-11
-8
-6
-2
-1
-5
0
1
-3
-4
0
4
6
5
4
6
5
9
19
32
42
47
41
27
5
-32
-72
-127
-182
-223
-228
-187
-133
-84
-46
-22
3
19
29
33
35
27
32
34
36
35
35
36
36
33
30
31
26
26
25
24
24
25
24
20
16
16
15
14
11
12
14
8
5
6
-5
0
-1
1
-3
0
-5
-5
-4
1
1
-4
-11
-7
-6
-6
-3
-3
-9
-13
-11
-10
-10
-9
-8
-7
-7
-7
-1
1
0
4
8
6
-2
2
-3
-3
-3
-2
0
0
-3
0
-1
-1
4
6
-2
-5
1
2
8
-2
-7
-6
-4
2
5
0
1
-1
2
6
10
2
-4
-6
-4
0
0
0
1
2
3
9
6
9
12
9
11
8
3
-1
1
-3
-7
-9
-8
-6
-10
-19
-19
-16
-13
-8
-4
-6
-5
-7
-7
-7
-3
0
-5
-8
-10
-2
7
7
20
30
35
40
31
3
-36
-76
-124
-171
-211
-210
-174
-130
-91
-60
-34
-19
8
19
25
25
25
19
23
26
29
31
25
25
23
23
25
24
22
18
15
14
17
12
14
11
9
12
13
11
5
9
7
2
1
0
1
-4
-5
-2
-6
-3
-5
-7
-10
-8
-11
-8
-6
-7
-12
-11
-9
-15
-13
-11
-11
-11
-10
-8
-13
-8
-6
-5
1
-3
-5
0
-2
0
0
-1
0
-4
-3
-2
0
3
0
-2
3
5
3
0
-5
-4
-5
-4
-5
-7
-9
-7
-4
-7
-5
4
4
1
1
0
1
-2
-3
4
7
-1
-6
-4
-7
-6
-5
-5
3
8
4
-2
-3
7
6
3
5
5
3
7
0
-4
-11
-10
-10
-15
-16
-14
-16
-13
-12
-13
-12
-6
-5
-4
-7
-5
-7
-6
-8
-10
-11
-8
-9
-5
15
29
40
38
25
7
-17
-51
-90
-140
-193
-218
-209
-164
-119
-78
-44
-15
3
15
20
23
22
25
22
25
29
27
26
28
26
20
18
19
17
17
22
13
15
16
13
16
20
12
7
9
5
8
4
4
4
3
-1
0
-5
-9
-9
-9
-6
-7
0
-5
-5
-6
-13
-10
-7
-7
-11
-10
-9
-10
-10
-9
-11
-13
-11
-7
-3
-5
-7
-6
2
1
-5
-4
-1
-3
1
2
1
-1
-1
-2
0
-1
-6
-4
-4
-3
-4
-4
-7
-2
-1
2
3
1
-4
-6
-4
-3
4
4
-1
-1
-1
0
1
0
-3
-1
3
-4
-6
-5
-3
3
7
7
-3
-6
-1
-3
-6
-4
-8
-5
-5
-4
0
-5
-5
-4
-7
3
3
1
0
-6
-4
-3
-2
5
7
4
-1
3
2
-3
2
-1
-4
-13
-15
-17
-19
-19
-18
-18
-12
-10
-6
-4
-7
-10
-4
-1
-5
-5
-5
-10
-13
-12
-10
4
21
27
33
35
26
9
-18
-58
-104
-162
-206
-225
-207
-160
-102
-69
-42
-21
-1
11
19
19
24
23
27
32
29
26
21
24
27
28
24
24
24
26
27
19
13
10
14
16
16
13
7
3
4
4
6
6
8
7
2
-6
-6
-5
-7
-2
-5
-9
-10
-13
-13
-8
-4
-6
-8
-15
-17
-15
-11
-9
-7
-9
-9
-7
-7
-11
-13
-10
-10
-10
-9
-3
4
1
0
-1
-2
-4
-5
-4
2
3
8
-3
-3
-4
-7
0
0
2
1
2
3
2
4
4
-5
-6
-6
1
-3
-5
1
-2
-5
1
3
3
3
2
3
5
8
5
3
3
4
5
2
-2
9
7
6
-5
-9
-2
1
1
0
0
4
4
0
1
3
8
1
1
-2
-4
4
5
4
-1
-6
-9
-9
-7
-3
-5
-14
-17
-16
-15
-8
-3
-9
-13
-14
-13
-9
-12
-10
-6
-3
-4
-8
-10
-6
2
12
27
33
33
25
11
-14
-42
-87
-140
-194
-223
-216
-177
-126
-83
-53
-31
-13
8
15
22
23
25
24
22
24
22
23
29
26
22
19
18
20
15
15
13
15
15
15
12
12
12
9
11
9
10
8
6
1
-5
-6
-5
-8
-5
-9
-11
-10
-8
-13
-15
-13
-14
-15
-14
-14
-13
-14
-15
-17
-18
-17
-17
-17
-14
-15
-10
-8
-8
-9
-8
-6
-4
-4
0
2
3
4
2
4
4
5
3
3
4
3
2
1
0
0
-5
2
2
1
1
4
-1
-1
-3
4
1
4
0
-1
1
0
1
3
-3
3
4
3
1
1
2
2
2
-2
-1
0
-3
-1
4
2
3
-3
-3
1
0
0
-2
2
3
1
-2
-2
-3
-1
-2
-4
-3
0
-5
2
-3
-4
-4
-5
0
0
0
0
2
6
4
0
3
-2
-6
-2
-6
-9
-11
-12
-15
-17
-16
-19
-19
-21
-16
-17
-13
-11
-10
-10
-9
-13
-13
-10
-11
-12
-8
-6
1
9
20
23
21
10
-8
-42
-80
-138
-204
-259
-276
-243
-187
-126
-79
-45
-19
3
12
16
18
25
25
28
28
26
27
27
27
26
25
26
25
21
18
13
12
15
15
13
9
9
10
9
5
3
4
5
0
3
2
-4
-7
-2
-5
-5
-8
-12
-12
-13
-16
-21
-19
-13
-9
-10
-11
-12
-11
-11
-13
-17
-18
-15
-12
-12
-12
-13
-18
-18
-17
-15
-14
-12
-11
-8
-6
-9
-7
-6
-8
-9
-9
-4
-4
-8
-5
-8
-11
-8
-3
-8
-12
-13
-9
-11
-8
-5
-1
0
-5
-3
-2
-5
-8
-10
-8
-8
-5
-7
-5
4
5
3
-3
-5
-8
-3
-5
-5
0
-2
2
-4
-5
-6
-7
0
0
-2
0
-5
-4
-6
-8
-6
-3
-5
-9
-8
-7
-4
-1
0
1
3
2
3
-3
-4
-13
-7
-6
6
6
3
-4
-6
-6
-6
-11
-11
-9
-8
-11
-19
-20
-22
-22
-22
-19
-18
-16
-10
-4
-2
-6
-11
-10
-7
-9
-13
-12
-13
-11
-1
9
22
33
35
25
3
-25
-59
-118
-177
-234
-263
-238
-190
-137
-88
-53
-20
-5
13
24
26
28
31
31
30
28
31
33
31
29
30
32
31
30
27
25
22
22
16
18
16
16
20
13
9
3
9
7
7
4
7
7
6
0
-3
-2
-10
-7
0
-9
-13
-10
-9
-10
-8
-11
-8
-9
-5
-8
-9
-9
-7
-13
-10
-5
-5
-2
-3
-2
-4
-4
-4
-2
-5
4
5
8
9
6
4
8
5
4
-2
4
6
7
11
11
4
-4
1
6
4
4
1
9
9
4
3
0
4
2
4
5
4
-1
6
4
7
5
9
8
11
9
6
4
5
5
3
4
3
2
1
3
6
5
6
6
5
5
8
3
2
0
0
3
0
-5
-3
2
-1
2
5
3
2
5
3
4
2
3
8
6
4
-5
-4
1
5
-2
-10
-16
-18
-18
-11
-6
-12
-13
-11
-11
-8
-9
-9
-9
-8
-10
-13
-6
-5
0
0
6
18
29
35
41
23
-9
-43
-89
-140
-197
-247
-250
-215
-163
-108
-64
-27
1
12
14
14
24
30
35
26
21
22
20
21
23
21
23
21
16
13
13
16
18
13
10
16
15
14
7
7
5
3
4
-1
-3
-3
-6
-4
-3
-9
-8
-13
-10
-10
-7
-6
-9
-8
-10
-11
-11
-9
-12
-12
-8
-13
-9
-8
-8
-9
-5
-6
-3
2
5
7
7
-2
-2
0
4
3
5
6
11
12
9
10
7
8
5
7
9
9
13
10
9
4
4
6
1
-4
0
0
-2
-2
-2
3
3
-1
3
2
2
4
5
8
6
0
2
-4
-3
1
2
-1
-5
3
4
3
3
1
-3
1
1
4
3
3
1
-1
-3
-1
0
0
0
-2
-1
2
2
0
0
-5
0
-5
2
2
4
2
-2
-5
0
2
4
7
7
-1
-3
-5
-12
-8
-8
-8
-12
-18
-21
-22
-16
-15
-17
-17
-14
-17
-16
-14
-15
-15
-12
-13
-10
-9
-9
-9
-2
6
20
25
30
28
13
-17
-51
-100
-157
-215
-255
-243
-201
-145
-96
-60
-27
-9
7
17
24
33
28
25
26
27
25
27
33
32
25
23
20
25
23
20
23
20
16
16
14
19
17
17
12
9
8
3
1
4
4
1
-5
-2
-3
-2
-5
-7
-12
-10
-10
-10
-5
0
-7
-10
-10
-9
-5
-5
-5
-5
-4
-7
-9
-13
-15
-12
-7
-7
-7
-4
-1
-3
-1
2
4
8
6
5
4
-2
-7
-4
4
1
0
-1
0
-6
-7
-6
-5
3
3
2
1
0
-1
-5
-5
-5
-5
-5
-2
-2
-1
-3
-2
0
0
3
8
8
6
4
4
-3
0
-5
-1
-3
0
-5
-4
3
4
3
1
0
-5
-4
-4
-5
2
2
3
-1
-1
-2
3
4
4
-2
-4
-5
-9
-8
-7
-5
-4
-2
0
1
4
4
6
6
1
-3
-3
-9
-11
-14
-15
-17
-17
-17
-21
-23
-21
-15
-15
-13
-6
-4
-5
-9
-9
-7
-4
-4
-7
-8
-7
-2
10
22
36
36
23
-4
-39
-80
-130
-187
-238
-251
-223
-177
-124
-81
-46
-19
-4
8
13
21
24
26
25
27
29
28
25
29
33
29
34
37
32
23
21
27
31
22
12
6
11
8
6
7
9
10
4
1
-1
-4
0
0
6
1
-6
-5
-7
-6
-5
-4
-6
-4
-7
-7
-7
-3
-4
-6
-9
-8
-8
-8
-8
-11
-13
-7
-4
-5
-8
-11
-8
-9
-4
-7
-5
-7
0
-2
-3
2
3
3
3
-1
1
-1
-1
4
6
4
-1
-5
-7
-5
-5
1
4
2
4
1
0
-3
-3
1
1
1
4
6
4
4
5
6
5
4
3
6
3
-1
-5
-1
2
7
6
6
6
4
-2
2
7
7
6
2
3
8
6
1
8
5
8
4
-4
-6
-4
-4
-8
-7
-10
-7
-12
-12
-12
-15
-15
-14
-15
-13
-17
-13
-8
-12
-10
-10
-9
-11
-6
-9
-7
-9
-8
-6
-5
1
13
21
31
28
24
2
-25
-64
-113
-169
-228
-261
-241
-187
-128
-81
-53
-24
-2
9
20
28
31
29
28
26
21
25
29
32
25
23
20
20
24
24
15
16
19
15
11
10
5
6
4
3
4
4
2
-2
-4
-9
-11
-15
-18
-16
-13
-15
-12
-15
-16
-17
-17
-17
-16
-13
-15
-19
-21
-14
-13
-16
-17
-23
-19
-22
-21
-21
-19
-21
-16
-15
-13
-15
-16
-13
-13
-9
-4
-6
-4
-6
-5
-4
-7
-9
-7
-6
-9
-1
-4
-8
-10
-8
-7
-8
-9
-6
-5
0
-2
1
-4
1
-1
-6
-3
-4
-5
-5
-5
-7
-10
-11
-5
-2
4
3
-5
-7
-6
-6
-5
-5
-6
-3
4
1
2
4
5
0
-5
-3
-2
-5
-8
-14
-19
-18
-17
-16
-16
-22
-23
-22
-19
-14
-7
-14
-14
-9
-5
-8
-15
-17
-19
-19
-15
-12
-4
10
23
26
21
4
-15
-49
-99
-164
-229
-277
-276
-233
-165
-104
-62
-26
-6
7
11
15
19
24
27
25
27
25
25
26
32
33
35
28
21
16
15
16
12
10
7
10
11
10
12
10
10
6
1
5
2
-1
-6
-4
0
-4
-5
-6
-3
-4
-4
-11
-12
-14
-12
-13
-13
-10
-10
-10
-10
-4
-4
-9
-16
-14
-13
-8
-3
-7
-8
-6
-4
1
0
-7
-4
-4
1
1
-5
-4
-8
-6
0
-4
1
0
1
1
-2
-3
0
-3
-1
-5
-9
-8
-7
0
-9
-6
-5
0
0
2
1
2
3
5
-2
0
-3
0
-3
1
-1
2
3
4
3
-1
4
3
3
3
3
0
4
1
2
4
3
6
8
9
8
4
4
-3
-3
-2
-5
-6
-9
-12
-15
-16
-12
-8
-9
-11
-6
-5
-6
0
-5
-5
-7
-5
-5
-7
-8
-1
3
14
24
28
27
17
-4
-35
-78
-130
-191
-244
-260
-224
-167
-107
-62
-35
-9
8
17
24
27
30
34
39
38
36
35
40
38
35
35
34
34
31
30
29
30
25
29
27
23
24
22
18
18
15
14
12
12
11
8
8
7
5
3
3
-2
2
4
7
8
7
5
4
2
1
2
3
8
3
6
8
12
8
3
1
4
6
5
7
3
9
9
10
8
6
8
9
10
8
8
5
5
3
4
8
9
10
7
4
6
9
6
6
6
8
3
3
7
9
11
4
3
7
12
10
7
10
9
3
7
8
7
6
3
-1
2
1
-3
-3
-3
-2
0
0
-2
0
1
2
-2
-4
-4
-11
-15
-13
-19
-18
-18
-27
-30
-32
-29
-25
-17
-12
-14
-17
-21
-22
-22
-19
-19
-16
-16
-20
-22
-24
-19
-13
-8
10
19
25
12
-15
-53
-93
-140
-194
-249
-277
-261
-207
-144
-96
-56
-25
-9
-5
8
12
20
15
13
20
28
20
14
12
15
19
25
22
15
7
7
8
10
7
11
5
4
4
4
0
1
1
-1
-1
8
9
-2
-13
-17
-13
-4
-6
-12
-15
-12
-15
-18
-16
-8
-6
-12
-13
-13
-8
-8
-11
-11
-11
-13
-16
-10
-4
-7
-1
4
8
7
3
-6
-3
3
1
-2
1
4
6
6
4
9
15
12
10
19
14
12
9
4
0
2
9
9
10
8
13
15
11
13
20
17
16
9
7
5
10
15
12
9
8
16
23
13
11
5
8
14
14
11
14
18
14
15
19
18
11
4
-3
-9
-10
-8
-5
-5
-5
4
-1
3
1
-1
4
7
8
0
-9
-7
-5
1
-1
-3
3
14
23
27
39
36
32
11
-24
-71
-124
-184
-241
-275
-256
-201
-136
-82
-40
-16
6
20
26
29
33
36
41
38
33
32
36
35
38
41
38
32
32
33
31
32
24
24
22
20
22
20
12
11
13
15
17
17
16
13
6
-5
-2
0
-4
-7
-6
-3
-7
-5
-4
-11
-9
-11
-15
-10
-8
1
2
0
0
0
-7
-9
-12
-13
-11
-4
3
8
9
7
5
2
-3
-7
-3
-5
-2
3
3
7
6
12
6
2
1
2
11
13
12
5
3
12
12
-1
-8
-7
-5
-7
-3
2
4
4
4
4
10
13
12
5
-5
0
10
6
-1
-5
0
-1
3
5
2
4
5
9
9
9
1
-2
-8
-11
-2
-3
-8
-16
-21
-18
-19
-17
-13
-9
-6
-9
-11
-11
-9
-7
-5
-12
-10
-10
-6
-10
-11
-7
8
21
27
28
20
10
-12
-45
-101
-155
-212
-255
-253
-206
-148
-100
-61
-33
-16
-6
10
17
24
26
25
28
34
30
30
27
23
28
33
31
30
28
30
28
24
21
20
20
19
11
10
5
6
10
6
5
5
5
4
1
-3
-6
-6
-6
-9
-8
-13
-13
-15
-17
-13
-15
-16
-15
-16
-12
-15
-13
-13
-14
-15
-19
-16
-14
-16
-20
-19
-12
-13
-14
-14
-14
-8
-7
-7
-7
-8
-4
-2
-3
-4
-6
-5
-8
-7
-7
-12
-14
-9
-8
-8
-10
-9
-8
-13
-17
-11
-8
-3
-11
-10
0
2
-3
-2
-5
-8
-10
-7
-6
-5
-4
-3
1
0
-2
1
-3
1
2
-5
-9
-11
-10
-8
-11
-13
-19
-22
-20
-16
-15
-17
-12
-8
-12
-13
-9
-9
-9
-9
-8
-12
-13
-13
-8
-6
-2
9
21
27
27
14
-4
-32
-75
-123
-186
-240
-266
-239
-184
-133
-84
-50
-24
-6
5
14
20
21
25
25
24
28
28
23
26
24
23
28
23
23
20
17
18
23
24
18
15
11
12
7
5
6
2
3
1
3
2
0
-2
-7
-8
-9
-8
-10
-13
-16
-16
-15
-9
-8
-12
-13
-13
-12
-11
-12
-19
-14
-10
-7
-8
-12
-16
-12
-12
-10
-11
-11
-8
-5
-5
-8
-8
-5
-7
-11
-13
-10
-4
-3
-6
-8
-9
-3
0
0
-4
-7
-2
0
-3
-5
-8
-4
-5
-4
-6
-5
-3
-5
-8
-5
-3
0
1
2
1
-3
-1
4
1
-3
1
4
7
9
2
-3
0
-3
-5
-7
-6
-12
-11
-11
-17
-17
-12
-9
-7
-7
-4
-3
1
-1
2
-3
0
2
1
-4
-5
3
9
16
31
33
31
21
-9
-40
-84
-137
-196
-244
-256
-217
-158
-103
-68
-34
-8
10
25
29
32
39
39
36
31
34
40
40
39
38
35
30
31
27
30
33
31
33
32
29
24
20
20
19
17
13
11
15
13
12
6
-2
0
2
4
1
-3
4
4
-9
-4
-1
-2
-3
-5
-8
-4
-3
-1
-8
-13
-13
-8
-6
-4
-4
-9
-6
-5
2
2
4
6
5
3
3
5
9
10
9
7
7
8
8
8
7
5
5
7
3
3
5
4
6
6
3
2
8
9
6
4
5
12
11
8
7
8
9
9
5
5
3
8
9
7
8
8
11
11
12
12
14
16
14
11
3
2
-1
2
-2
-9
-12
-7
-3
-7
-9
-9
-4
0
2
6
1
4
2
0
0
1
-1
-2
-4
1
14
26
35
41
36
15
-10
-46
-96
-149
-213
-262
-259
-217
-153
-101
-55
-26
-8
12
23
31
27
26
25
35
40
41
40
34
34
32
34
32
29
27
32
27
23
21
28
26
27
19
17
21
22
17
10
7
6
5
10
6
8
5
1
-3
-3
-6
-3
-3
-6
-10
-12
-9
-5
-5
-9
-8
-7
-9
-6
-8
-10
-9
-5
-5
-8
-9
-7
4
4
-5
-1
4
8
7
5
4
8
8
10
5
1
1
3
1
-1
3
6
2
6
3
4
5
10
4
0
-4
-3
4
4
2
5
3
3
0
-4
-13
-5
-5
-7
-5
-1
0
4
0
-3
-7
-6
-8
-9
-14
-16
-19
-17
-16
-16
-18
-21
-19
-17
-17
-12
-9
-7
-8
-4
-5
-6
-5
-4
-4
0
1
4
3
9
23
33
44
43
32
5
-32
-78
-136
-198
-260
-283
-251
-192
-130
-79
-37
-7
13
24
30
33
39
45
43
42
42
42
41
39
33
37
40
38
35
29
31
36
33
25
25
22
24
22
16
12
13
18
13
9
3
7
8
8
4
4
1
2
-2
-7
-10
-4
-3
-8
-13
-11
-8
-7
-6
-9
-11
-12
-10
-7
-10
-12
-13
-9
-10
-12
-13
-11
-5
1
1
-3
1
4
3
-2
-3
1
-1
1
-1
-3
-2
4
6
2
-3
-4
1
0
-5
-4
0
4
7
3
1
-5
-1
-1
-3
-4
1
-3
1
1
0
-4
-1
-3
0
-2
-2
2
2
2
0
3
11
13
6
-1
-4
-3
-9
-13
-17
-17
-14
-18
-21
-21
-21
-13
-6
-9
-12
-15
-12
-8
-5
-8
-8
-4
-5
-13
-13
-6
4
18
28
31
29
18
-13
-51
-95
-151
-207
-255
-269
-235
-176
-112
-70
-38
-16
2
14
21
25
21
27
33
37
33
27
25
30
34
26
25
27
29
27
23
19
19
22
24
17
12
18
17
12
8
6
6
4
1
1
-3
0
1
-2
-6
-4
-3
-3
0
-11
-9
-7
-3
-5
-6
-7
-10
-9
-7
-10
-13
-14
-8
-12
-18
-18
-7
-1
-5
-4
-9
-10
-9
-8
-8
-10
-7
-2
-4
-5
-9
-12
-11
-13
-11
-9
-7
-6
-4
-8
-14
-10
-5
-4
-5
-7
-7
-3
2
-4
0
-3
0
-1
-4
-3
0
5
10
11
9
11
13
8
5
8
13
13
10
4
2
2
0
-2
-6
-9
-9
-9
-13
-12
-13
-13
-6
-7
-9
-9
-9
-7
-7
-4
0
1
-4
-8
-11
-9
-1
9
19
26
31
31
17
-9
-48
-98
-152
-214
-271
-285
-251
-191
-128
-78
-44
-15
8
19
24
22
25
30
35
39
33
35
36
35
35
32
33
35
31
33
26
24
26
25
22
13
12
16
17
16
14
10
5
5
1
0
0
-3
-5
1
-3
-5
4
6
2
-7
-7
-4
-3
1
-2
-3
-7
-7
-8
-8
-13
-10
-8
-11
-14
-15
-10
-3
-3
-8
-12
-14
-8
-9
-7
-8
-7
-5
-6
-2
-2
-3
1
-6
-9
-7
-4
1
1
-5
0
2
-1
1
-4
1
0
1
-3
-5
-3
2
8
6
4
5
1
3
2
3
1
8
5
8
2
1
2
4
1
-7
-9
-6
-9
-13
-17
-17
-14
-12
-14
-14
-13
-12
-5
-4
-6
-7
-9
-5
-7
-7
-9
-10
-7
-7
-13
-8
11
23
34
32
20
-1
-33
-77
-136
-196
-249
-272
-248
-195
-138
-87
-47
-22
-3
10
20
22
28
28
29
35
40
34
31
29
32
32
32
26
24
25
24
25
22
20
22
24
18
13
11
7
14
12
7
2
3
10
9
3
2
1
2
-5
-2
0
3
-3
-2
-4
-7
-5
0
-7
-11
-10
-13
-11
-11
-11
-13
-13
-13
-17
-21
-21
-19
-14
-12
-19
-15
-11
-7
-9
-13
-14
-9
-6
-7
-10
-11
-8
-9
-6
-5
-7
-3
-2
-5
-5
-5
-3
-4
-4
1
4
3
5
3
-2
-4
2
4
6
1
-1
1
12
9
3
5
6
8
7
2
-7
-9
-8
-8
-15
-16
-15
-11
-7
-7
-9
-6
-9
-4
-3
-6
-3
0
0
-5
-5
-5
2
1
2
8
27
43
52
40
22
-5
-49
-97
-158
-221
-268
-269
-221
-159
-101
-51
-21
2
13
22
30
33
34
34
36
40
36
30
31
28
31
32
27
26
27
30
32
25
21
17
16
18
11
8
7
11
12
9
5
3
6
6
4
0
-6
-3
-5
-3
-5
-5
-3
-2
-7
-8
-7
-7
-4
-3
-11
-7
-5
-8
-13
-15
-14
-13
-10
-8
-12
-10
-7
-6
-7
-9
-5
-1
4
3
-6
-9
-2
3
2
-5
-4
-3
-1
0
2
-1
-1
3
4
3
-3
5
3
4
1
0
6
5
8
-1
-1
2
4
2
-3
3
8
7
5
1
3
7
8
8
4
5
5
4
-1
-5
-9
-12
-9
-16
-17
-13
-12
-8
-10
-15
-13
-7
-5
-7
-5
-5
-5
-5
-4
-13
-9
-5
7
12
20
28
31
23
6
-32
-70
-123
-183
-242
-283
-263
-210
-147
-92
-55
-25
-3
16
19
23
28
32
35
35
36
34
40
40
36
31
27
28
33
26
24
26
26
27
24
23
22
22
16
13
12
7
14
11
7
3
2
6
0
0
0
-5
-2
-4
1
-3
0
-3
4
1
-6
-8
-5
2
-6
-5
-5
-7
-7
-9
-10
-10
-13
-11
-13
-8
-10
-5
-5
-4
-5
-6
-4
-5
-5
-6
-6
3
3
-1
-6
-3
0
-2
2
-7
-6
3
4
1
-4
-3
0
4
3
-2
4
4
8
3
3
3
4
6
5
2
2
8
7
9
8
8
8
3
0
-3
-9
-7
-7
-10
-16
-15
-9
-7
-9
-12
-11
-8
-4
0
-4
-5
-2
-3
-6
-7
-4
0
3
3
11
23
35
34
22
1
-36
-80
-134
-196
-257
-283
-249
-195
-133
-81
-41
-13
3
14
20
25
30
35
35
33
29
35
33
33
29
30
28
32
30
28
23
27
26
29
21
20
21
13
13
13
13
14
9
9
2
3
5
9
6
-3
-6
0
2
-1
-6
-7
-3
-5
-5
-8
-10
-2
0
1
-5
-4
-6
-9
-11
-11
-7
-8
-5
-8
-7
-12
-5
-7
-5
-5
-4
-5
-5
-8
-2
-3
1
-2
-7
-5
-4
1
-3
-9
-6
-2
-1
-1
-3
-3
-5
-1
5
6
-1
5
2
3
1
-4
-1
4
1
-3
2
1
3
7
7
0
3
9
11
9
4
3
7
7
-2
-6
-7
-8
-6
-12
-16
-17
-10
-4
-8
-9
-9
-3
-2
-5
-10
-9
-6
1
-5
-12
-13
-5
3
11
23
29
35
34
18
-17
-52
-102
-163
-228
-277
-277
-228
-165
-108
-61
-31
-7
8
20
26
32
32
36
37
32
33
38
35
32
27
28
32
31
29
23
29
28
27
22
16
16
15
18
16
11
11
13
12
5
3
1
3
4
-3
-5
-6
-4
-2
-2
-4
-6
-1
1
-3
-6
-8
-8
-11
-11
-11
-8
-11
-9
-13
-16
-17
-11
-9
-15
-16
-15
-10
-9
-12
-13
-12
-4
0
-5
-9
-7
-1
1
-5
-5
-9
-3
-2
0
-6
-6
2
3
1
1
-1
2
1
-3
-5
-1
5
8
2
2
2
3
4
3
5
2
3
3
2
-2
-3
3
1
3
-4
-5
-3
1
3
3
3
5
8
1
-4
-7
-4
-7
-12
-19
-21
-14
-10
-14
-18
-13
-10
-6
-11
-12
-14
-8
-6
-9
-15
-16
-12
-7
-5
-10
-5
7
21
27
29
23
9
-26
-79
-140
-204
-262
-292
-268
-210
-146
-93
-53
-23
-6
11
17
25
27
24
23
28
32
31
31
33
36
37
29
25
26
29
32
26
21
19
18
19
15
12
9
13
11
9
4
2
-1
1
3
0
-3
-7
-8
-10
-11
-11
-11
-7
-7
-13
-15
-7
-7
-13
-14
-17
-11
-9
-11
-14
-16
-16
-19
-16
-19
-19
-12
-9
-7
-12
-8
-3
-4
-9
-11
-10
-6
-6
-11
-9
-8
-3
-5
-7
-8
-8
-4
-4
-8
-13
-8
-1
3
1
-6
-7
-3
0
-9
-8
0
4
2
-6
-10
-2
2
-5
-10
-5
-5
1
0
-2
-2
3
4
3
1
-1
2
6
1
-5
-9
-11
-6
-8
-15
-19
-12
-10
-13
-18
-16
-13
-2
-6
-8
-14
-10
-5
-2
-5
-7
-6
-7
-6
-7
-6
4
19
32
36
31
22
3
-38
-95
-144
-201
-247
-249
-213
-158
-104
-56
-27
-12
6
14
18
21
24
23
24
31
32
27
24
23
25
25
21
18
18
23
21
11
9
10
14
14
8
4
0
6
3
2
-1
0
-3
-7
-8
-7
-4
-8
-9
-15
-18
-16
-13
-9
-12
-15
-11
-9
-8
-11
-14
-12
-8
-11
-13
-18
-16
-11
-15
-13
-10
-9
-3
-3
-8
-5
-5
4
6
0
-7
-6
2
3
-9
-7
-5
-4
-5
-4
-4
-6
-1
-1
0
-4
1
5
2
-3
-2
-3
4
8
5
6
5
9
10
2
2
4
10
9
9
5
11
12
7
-1
1
3
6
6
-1
-3
-2
3
-3
-9
-16
-19
-19
-12
-4
0
0
-2
0
-11
-13
-13
-7
-6
-6
0
2
-4
-11
-9
-2
3
14
25
33
34
21
2
-30
-73
-118
-165
-199
-198
-161
-109
-65
-35
-17
2
11
25
29
30
23
32
32
29
32
32
30
27
27
29
30
30
33
24
23
28
26
20
20
21
16
14
11
10
7
10
10
9
6
7
8
7
3
-5
-2
-2
-2
-3
-3
-4
-6
-9
-14
-14
-9
-7
-9
-8
-10
-14
-13
-10
-4
-6
-5
-3
-8
-7
-6
-3
0
-4
-5
4
5
9
11
9
10
1
-9
-8
-9
-3
2
2
3
5
-2
-8
-8
-3
3
4
1
1
1
0
-2
0
0
-4
-5
-5
0
0
4
7
4
0
0
1
2
1
3
3
-2
1
1
3
-1
6
9
6
0
-3
-3
-1
4
7
2
-5
-8
-11
-14
-13
-12
-8
0
-17
-24
-24
-18
-17
-6
-4
-9
-9
-5
-2
-3
-7
-11
-8
-7
-3
8
14
22
30
38
35
26
2
-31
-70
-130
-205
-269
-293
-262
-200
-128
-73
-26
1
12
20
23
32
32
29
29
32
33
36
35
31
32
27
26
29
30
32
29
26
21
18
16
10
13
12
9
10
15
15
10
4
-3
-5
-3
-5
-5
-6
-8
-9
-11
-6
-8
-9
-10
-10
-8
-9
-9
-8
-16
-15
-17
-17
-14
-15
-11
-16
-13
-12
-12
-6
-7
-4
-3
6
5
2
-1
2
2
4
4
6
7
7
7
1
2
3
3
3
5
2
2
1
2
-1
2
4
-1
-3
2
0
6
-1
2
7
3
5
8
9
8
7
6
3
4
6
7
6
7
3
6
7
7
7
9
9
12
12
10
9
12
12
4
4
5
4
1
-4
-6
-7
-10
-12
-13
-11
-8
-8
-4
-3
2
-2
0
-3
-1
0
-3
2
-3
4
14
20
31
39
40
36
17
-8
-48
-95
-149
-202
-233
-220
-178
-127
-83
-52
-25
-4
16
22
28
29
34
33
36
32
30
31
33
32
29
28
28
23
23
24
21
23
20
19
17
19
16
16
12
10
8
4
7
4
4
1
-1
-6
-6
-8
-10
-11
-13
-12
-15
-13
-14
-16
-12
-14
-16
-14
-13
-13
-12
-10
-12
-10
-10
-8
-7
-7
-8
-5
-5
-5
1
-2
5
5
3
6
6
8
7
5
7
5
6
5
4
6
5
2
3
2
2
0
1
4
4
3
1
0
5
2
3
6
4
3
4
3
2
4
4
3
7
6
5
3
1
4
3
1
3
2
3
6
9
6
9
3
5
5
8
-1
2
1
-5
-5
-5
-6
-8
-10
-13
-17
-14
-8
-10
-9
-10
-8
-7
-7
-6
-4
-6
-8
-9
-10
-8
-11
-6
5
16
29
39
34
24
1
-28
-73
-122
-179
-224
-238
-216
-168
-115
-75
-40
-16
-1
16
18
26
27
28
27
27
27
30
27
26
24
24
24
24
22
19
19
19
14
17
12
10
9
8
7
2
5
4
2
-2
-3
-4
-2
-4
-4
-8
-13
-9
-14
-14
-15
-18
-19
-18
-20
-16
-21
-17
-14
-14
-17
-15
-17
-14
-13
-14
-14
-13
-10
-9
-6
-4
-6
-5
-1
-3
0
3
1
3
-1
3
5
4
3
-3
-2
-3
-5
-5
2
3
2
2
-1
-3
-5
-4
-6
-4
-4
-1
-1
1
1
4
4
2
2
-1
-2
-1
0
-4
-4
-6
-2
-3
-3
-2
-2
-3
0
-2
2
-2
2
2
-2
-7
-8
-7
-5
-1
1
-3
-4
-5
-4
-5
3
2
0
-2
-3
-4
-13
-13
-17
-19
-19
-15
-15
-17
-14
-15
-13
-11
-10
-9
-5
-5
-7
-8
-9
-7
-7
-5
4
16
28
29
26
13
-13
-40
-79
-127
-181
-233
-251
-224
-175
-125
-76
-45
-21
-3
10
15
18
19
23
26
26
29
32
32
32
28
25
23
24
24
18
17
15
18
20
19
18
15
18
18
17
12
5
7
1
5
4
3
-1
-2
-5
-10
-13
-12
-16
-16
-13
-9
-13
-10
-6
-9
-12
-17
-17
-15
-16
-17
-17
-16
-15
-12
-13
-11
-9
-11
-9
-11
-10
-7
-1
0
-2
0
-2
4
8
9
2
-6
-11
-6
-4
-5
-5
-3
0
1
5
-1
-7
-4
-4
-1
-1
5
9
9
-3
-9
-5
-5
4
2
5
1
-1
4
4
-3
1
3
5
3
3
-2
-5
-3
-5
-1
1
-2
6
2
1
2
4
4
6
8
2
3
7
9
8
12
10
6
3
5
2
3
0
-4
-9
-14
-11
-14
-16
-17
-21
-17
-14
-11
-11
-12
-11
-9
-9
-9
-13
-13
-11
-11
-12
-10
-6
8
22
32
31
27
9
-15
-52
-97
-156
-222
-266
-264
-223
-167
-116
-71
-39
-17
1
10
15
22
28
29
31
27
32
29
28
27
27
32
28
25
24
26
29
25
23
20
20
16
15
14
11
15
11
13
10
8
3
3
3
1
3
1
-8
-5
-4
-8
-5
-8
-6
-7
-12
-10
-13
-8
-9
-9
-7
-8
-8
-6
-7
-4
-7
-8
-4
-8
-8
-6
-6
-6
-9
-6
-4
-5
0
-5
-4
-6
-4
-5
-5
-3
-4
-3
0
-3
-2
-3
-5
-4
-3
-3
-5
-7
-7
-7
-4
-2
-2
-1
0
-4
-2
0
1
1
-1
4
3
-2
-5
-5
-5
-2
-6
-6
-5
-6
-6
-3
-2
0
0
0
-4
-4
-3
-5
-4
1
1
-1
1
-1
2
4
2
-1
-1
0
4
1
-2
-7
-5
-8
-8
-11
-14
-17
-20
-18
-12
-12
-13
-11
-10
-9
-2
-5
-8
-8
-8
-12
-14
-7
-5
1
12
21
29
33
27
11
-23
-58
-106
-157
-219
-257
-249
-208
-149
-103
-61
-30
-7
8
15
22
23
23
31
27
35
34
36
32
34
28
28
25
24
26
26
24
23
21
17
17
15
15
13
13
9
7
5
2
2
6
4
-3
-6
-9
-7
-8
-10
-10
-10
-8
-12
-13
-15
-12
-8
-9
-13
-7
-13
-8
-15
-15
-11
-17
-7
-7
-9
-7
-8
-8
-8
-7
-3
1
1
4
4
3
6
3
5
-1
-3
-5
-4
3
1
2
1
0
8
8
4
5
3
1
2
2
4
4
5
1
3
6
-1
4
5
5
6
4
5
2
4
3
1
4
2
1
-3
-2
-2
1
1
2
2
9
8
7
8
4
7
3
-4
-4
-9
-11
-13
-14
-15
-16
-15
-12
-15
-13
-8
-8
-8
-6
-5
-7
-11
-8
-7
-8
-4
-9
-9
-6
2
13
27
36
35
25
0
-28
-73
-124
-182
-237
-261
-237
-186
-128
-80
-44
-18
0
14
16
23
25
26
28
28
33
34
30
34
31
28
28
29
27
29
24
23
21
21
18
17
16
15
12
15
14
13
8
7
2
0
-2
1
-2
-4
-4
-4
-5
-6
-5
-8
-13
-9
-5
-4
-5
-10
-10
-12
-11
-10
-8
-11
-10
-10
-9
-6
-4
-6
-4
-5
-3
-5
-5
-5
-4
-6
-4
0
-2
-1
-1
1
-3
1
0
-3
-2
-9
-2
-1
2
3
2
0
-3
-2
2
3
4
3
1
1
1
1
4
-1
4
1
3
4
3
2
1
1
-1
-1
-3
1
2
6
2
-2
1
-3
1
4
1
-1
4
4
5
7
5
4
2
4
5
-1
-7
-6
-8
-13
-15
-20
-20
-17
-14
-10
-12
-11
-10
-8
-9
-9
-7
-3
-8
-10
-8
-13
-5
2
7
20
32
33
31
14
-10
-42
-83
-143
-202
-251
-256
-219
-163
-110
-68
-37
-15
4
15
21
29
29
27
27
32
31
29
27
29
31
32
27
22
24
24
21
19
20
18
18
18
17
13
12
10
9
8
10
4
3
1
1
2
1
-5
-7
-8
-6
-9
-8
-4
-6
-10
-10
-9
-11
-11
-12
-11
-12
-13
-12
-8
-9
-10
-7
-8
-7
-4
-6
-1
-3
1
1
0
0
1
-5
-3
0
-1
1
-1
-2
4
1
-1
1
2
2
-2
-2
-3
-4
-2
3
5
4
3
1
2
-1
4
1
3
1
4
2
4
7
3
5
2
6
3
6
5
2
3
2
5
7
5
5
7
5
8
9
7
9
8
5
4
-3
-4
-9
-11
-9
-13
-14
-13
-13
-9
-8
-8
-8
-5
-2
-5
-3
-2
-2
-6
-5
-6
2
4
8
19
30
36
31
15
-11
-41
-88
-149
-208
-250
-246
-206
-152
-99
-60
-27
-7
8
14
23
28
27
33
31
32
36
33
33
32
30
27
27
28
25
24
25
23
24
20
18
19
17
16
11
13
11
11
7
4
2
1
0
-3
-1
2
-4
-5
-8
-8
-11
-11
-12
-9
-9
-6
-8
-9
-11
-12
-13
-11
-12
-9
-11
-10
-8
-9
-7
-7
-5
-5
0
-5
0
-2
0
0
2
-1
2
-2
-1
-2
-5
-5
-3
-2
-1
-2
-2
-4
-3
-2
1
-3
2
0
1
2
0
3
4
3
-1
-1
-1
-5
0
1
-2
-3
-3
2
0
3
1
3
3
-2
-3
0
1
0
6
4
3
6
5
6
2
8
7
3
4
-3
-5
-4
-7
-12
-14
-14
-14
-16
-17
-16
-17
-13
-14
-10
-10
-11
-13
-9
-8
-8
-12
-5
-8
-11
-5
3
13
26
30
24
15
-11
-39
-85
-136
-192
-247
-252
-225
-168
-117
-73
-38
-18
-5
12
16
18
25
26
28
28
28
28
26
24
23
24
24
22
21
18
24
20
15
15
13
11
13
12
8
7
4
3
6
3
-1
0
1
2
-1
-6
-8
-9
-12
-11
-11
-12
-9
-10
-11
-14
-10
-10
-8
-8
-5
-10
-8
-12
-10
-8
-13
-15
-13
-9
-8
-8
-8
-9
-8
-6
-6
-6
-4
-5
-3
-7
-4
-5
-5
0
-3
-3
-2
-4
-3
-2
-2
-3
-5
0
-3
-2
-2
2
-1
1
2
3
0
3
2
0
2
4
2
2
0
0
-1
0
3
1
-1
1
3
-1
0
3
5
3
4
5
3
4
6
3
6
0
-2
-4
-5
-10
-9
-9
-8
-10
-11
-13
-10
-8
-7
-8
-6
-4
0
-4
-4
-5
-5
-2
-2
-4
-5
0
9
21
31
31
25
6
-27
-66
-116
-168
-225
-259
-243
-196
-135
-86
-47
-20
0
14
20
24
28
31
30
31
31
30
29
29
29
23
27
26
24
25
25
26
24
21
20
20
20
17
11
14
13
11
11
8
7
3
3
4
2
2
2
-2
4
-5
-3
-3
-3
-5
1
1
-1
0
-2
-3
-3
-1
-3
0
-3
-4
-5
-7
-6
-6
-7
-6
-8
-6
-5
-5
-3
-6
-3
0
4
2
1
3
2
2
5
4
2
2
-1
-5
-5
-1
-3
2
3
-1
2
3
3
4
3
2
1
1
4
3
2
1
1
1
-4
1
-3
1
0
1
-2
3
2
4
1
6
6
5
6
4
1
-5
-7
-11
-13
-13
-13
-17
-14
-17
-15
-12
-13
-13
-9
-10
-9
-9
-9
-12
-11
-11
-8
-9
-8
-6
-4
2
10
19
30
29
22
8
-28
-64
-113
-170
-219
-250
-237
-189
-131
-84
-46
-23
-4
9
17
19
26
27
31
29
30
28
29
29
25
24
24
23
22
23
18
18
19
20
15
16
11
11
10
9
8
9
5
4
4
-3
-2
-5
1
-1
-5
-9
-5
-6
-7
-9
-7
-8
-5
-7
-5
-6
-5
-7
-9
-7
-13
-9
-8
-11
-14
-13
-10
-12
-12
-11
-10
-7
-6
-8
-9
-10
-10
-7
-6
-8
-5
-5
-8
-4
-6
-8
-9
-11
-8
-5
-8
-7
-8
-8
-7
-7
-7
-5
-10
-7
-6
-7
-6
-7
-3
-4
-6
-5
-6
-5
-5
-7
-4
-3
0
-3
1
4
1
1
3
-1
3
1
-5
-4
-11
-12
-17
-13
-17
-20
-17
-16
-17
-14
-10
-10
-9
-10
-11
-10
-9
-11
-11
-13
-11
-7
-11
-8
-3
8
19
27
27
20
1
-29
-73
-125
-178
-227
-255
-237
-184
-132
-85
-50
-25
-7
9
13
20
20
22
23
24
24
24
22
20
20
21
19
18
17
17
15
14
13
9
9
7
6
8
6
3
4
4
-3
-4
-1
-3
-4
-8
-12
-11
-11
-11
-10
-8
-9
-10
-10
-14
-10
-10
-10
-12
-13
-13
-15
-10
-12
-10
-9
-11
-13
-12
-12
-10
-10
-8
-8
-8
-9
-8
-4
-7
-4
-5
-3
-3
-5
-9
-4
-5
1
-3
-2
-6
-6
-7
-5
-7
-7
-3
-4
-3
-3
-2
-5
1
2
0
-2
-2
1
-4
2
-2
0
-3
-5
-4
-3
4
-1
4
6
8
5
8
3
4
-1
-2
-7
-4
-7
-7
-11
-13
-14
-17
-14
-14
-11
-8
-4
-5
-4
-5
-3
-6
-9
-5
-4
-6
-4
-4
-5
4
10
17
27
37
33
16
-8
-39
-80
-133
-186
-235
-246
-213
-157
-104
-62
-34
-9
10
18
25
28
31
36
36
36
33
33
32
36
33
31
30
29
26
24
23
24
22
20
18
17
15
16
16
14
11
12
8
7
6
1
-2
0
-5
-4
-6
-6
-5
-6
-8
-10
-8
-10
-8
-9
-7
-10
-8
-7
-10
-7
-9
-11
-8
-7
-6
-6
-5
-4
-3
0
-1
1
3
4
4
4
6
4
2
4
2
5
3
3
5
6
3
2
1
2
3
1
3
0
3
-1
1
0
2
5
4
4
1
3
5
4
5
3
4
4
4
3
6
6
4
5
2
1
6
8
6
7
8
6
5
3
2
-1
-5
-5
-6
-7
-9
-11
-10
-4
0
-2
-5
-3
-3
-2
-2
-1
1
0
0
1
-5
-2
1
8
22
36
46
45
29
2
-28
-73
-127
-186
-242
-256
-222
-165
-111
-67
-36
-12
9
18
25
32
31
32
34
34
33
30
30
30
31
32
30
29
28
26
22
19
17
15
19
16
18
12
11
9
10
7
5
6
1
-1
-5
-6
-8
-9
-11
-13
-13
-16
-19
-17
-20
-19
-17
-14
-16
-15
-11
-13
-11
-8
-10
-9
-10
-14
-9
-6
0
-3
0
4
8
6
8
10
9
11
13
11
9
10
8
10
11
14
9
13
13
15
12
9
3
4
2
5
6
9
11
12
11
12
13
15
9
13
9
5
4
1
3
3
6
10
15
14
17
19
20
17
15
10
3
1
4
5
3
-3
-4
-11
-10
-10
-5
4
-1
-5
-9
-7
-6
-4
-3
3
2
6
3
0
-1
-6
-4
5
16
29
37
41
39
24
-10
-53
-102
-162
-219
-256
-237
-189
-132
-89
-52
-25
-5
13
28
32
30
31
29
28
32
33
35
34
30
26
21
27
30
19
17
21
24
16
11
5
5
6
7
6
6
5
5
2
4
2
3
-2
-7
-5
-8
-7
-9
-5
-5
-11
-13
-20
-20
-19
-21
-16
-15
-11
-12
-13
-10
-4
-3
-5
-3
-7
-2
-5
-5
-1
3
6
4
6
4
9
11
14
11
8
9
8
5
3
4
1
2
-2
5
2
7
8
5
0
-7
-6
-2
-7
-3
4
2
-4
-3
-3
-4
1
3
8
8
14
14
11
6
-3
-1
-6
-3
-8
3
7
5
1
5
10
14
16
8
1
1
0
-3
-2
-4
-9
-14
-15
-17
-17
-12
-10
-8
-12
-9
-13
-8
-9
-9
-4
-2
-5
-6
-3
-2
0
-5
8
16
27
31
31
19
3
-28
-69
-121
-181
-239
-258
-238
-196
-141
-89
-44
-16
5
16
23
28
29
30
34
36
37
34
31
32
29
31
33
34
30
29
25
24
24
25
18
20
15
16
13
14
10
6
6
5
4
1
2
-2
-2
-3
-6
-5
-5
-6
-4
-7
-10
-11
-14
-15
-15
-17
-17
-15
-12
-11
-10
-11
-9
-7
-6
-5
-6
-7
-9
-7
-4
-2
0
1
2
5
4
3
3
4
3
1
3
4
3
4
-1
-5
-2
2
0
1
-2
-1
-4
-4
-7
-5
-5
-4
-2
-5
-5
-6
-4
-4
-5
1
-2
-1
-1
1
-2
1
-5
-4
-3
-5
-5
-7
-2
-5
0
-2
-3
-2
-3
2
1
2
1
7
8
8
2
1
-4
-4
-6
-7
-9
-14
-14
-15
-18
-14
-15
-12
-11
-10
-10
-11
-13
-9
-9
-13
-7
-12
-12
-13
-13
-12
-7
0
11
26
32
30
14
-4
-35
-79
-129
-193
-238
-252
-226
-178
-127
-80
-45
-19
-2
8
17
20
19
27
25
24
26
27
25
26
24
24
23
22
23
21
16
17
15
16
12
12
12
9
6
4
3
7
4
2
3
2
-1
-5
-5
-10
-11
-11
-12
-11
-15
-17
-14
-17
-16
-17
-16
-16
-17
-18
-15
-17
-13
-14
-11
-12
-12
-13
-8
-7
-8
-11
-7
-7
-1
-6
-2
4
-1
-3
0
-5
2
1
-2
-3
-4
-4
-6
-4
-6
-6
-9
-10
-9
-9
-6
-6
-8
-5
-7
-4
-5
-5
-5
-5
-6
-6
-6
-6
-6
-4
-2
-1
-1
-2
-4
-6
-6
-9
-7
-7
-5
-6
-4
-4
-7
-5
-7
-9
-5
-5
-6
-7
-7
-7
-5
-7
0
-4
-7
-7
-9
-8
-9
-7
0
-2
0
-4
-3
1
2
1
0
-3
-5
-9
-8
-9
-13
-15
-15
-17
-17
-20
-19
-17
-16
-16
-12
-10
-13
-11
-9
-14
-12
-14
-12
-11
-11
-13
-11
-9
7
18
26
31
22
10
-14
-43
-87
-143
-202
-245
-242
-200
-154
-105
-68
-36
-13
5
15
20
22
24
26
25
28
27
29
25
28
24
25
24
21
24
20
20
22
18
19
18
18
15
11
10
11
10
11
7
7
4
-3
-3
-3
-6
-4
-6
-6
-7
-10
-11
-12
-10
-12
-14
-12
-13
-12
-10
-14
-13
-13
-12
-12
-10
-13
-8
-9
-5
-6
-7
0
-3
-1
-3
0
0
1
0
-2
3
4
3
2
-1
2
1
3
4
3
4
-3
-2
0
-1
0
4
2
0
-5
-4
-5
-1
-5
-1
3
7
3
4
0
-4
-4
0
2
1
4
1
-1
-4
-2
-1
0
-4
-5
-7
-4
-6
-3
-4
-2
1
-1
-2
-5
-3
-3
-3
-3
1
-1
1
0
0
-4
-6
-6
-5
-8
-6
0
1
1
-9
-7
-8
-10
-13
-9
-8
-5
-5
-7
-6
-7
-2
-5
1
1
4
-1
0
-7
-8
-7
-7
-13
-19
-20
-20
-19
-16
-15
-17
-18
-12
-10
-9
-12
-12
-14
-13
-8
-8
-9
-10
-12
-7
4
12
22
32
32
20
3
-21
-54
-98
-154
-208
-236
-225
-183
-129
-92
-55
-27
-6
7
13
19
23
28
27
29
30
29
24
24
23
23
22
24
21
23
25
19
17
21
20
22
18
13
13
12
11
7
7
5
4
3
3
4
0
2
-3
-5
-6
-11
-8
-8
-8
-12
-11
-11
-13
-8
-10
-8
-10
-9
-12
-11
-11
-10
-4
-4
-4
-7
-9
-8
-10
-7
-4
-5
-5
-3
0
2
6
4
3
0
1
-2
-4
-2
-5
-6
-2
2
3
6
0
-5
-9
-6
-4
0
-5
0
-4
-7
-9
-4
-4
-2
-3
-2
-3
-5
1
-1
2
2
-3
-6
-3
-5
0
-2
0
-3
-3
-1
0
1
-2
-4
0
0
-5
-4
-3
-1
-2
-5
-4
-5
-8
-8
-8
-4
-3
-3
-5
-5
-6
-5
-5
-6
-3
-3
-4
-9
-8
-4
-7
-6
-6
-5
-9
-6
-5
-4
-6
-8
-8
-7
-6
-7
-8
-9
-2
-4
-2
4
1
1
1
0
-1
-3
-6
-3
-3
-9
-13
-19
-16
-16
-17
-17
-18
-16
-17
-12
-8
-9
-8
-12
-11
-12
-11
-9
-9
-12
-12
-7
-3
10
18
26
32
24
10
-17
-56
-99
-157
-208
-233
-215
-172
-128
-85
-50
-20
-7
8
16
17
25
21
23
24
28
30
28
29
29
25
22
23
20
18
19
16
16
21
17
14
15
15
15
16
13
9
8
12
8
4
3
-1
-2
-5
-7
-6
-4
-5
1
-3
-6
-10
-10
-12
-12
-13
-13
-11
-12
-10
-9
-10
-11
-7
-6
-9
-11
-11
-7
-9
-10
-5
-5
-4
-2
1
-1
3
-1
6
1
4
4
3
3
1
2
0
-3
0
1
-3
-3
-6
-2
-5
-7
-5
0
1
-1
-4
-2
-4
-1
-3
-3
-1
2
2
-1
0
1
1
4
2
2
-4
-2
-4
0
0
1
1
-2
-3
-2
-3
1
2
7
6
-2
-5
-6
-4
-4
-5
-3
-2
-7
-7
-4
-4
-3
-5
-5
-5
-4
-8
-8
-8
-8
-7
-5
-6
-7
-6
-9
-11
-12
-8
-9
-9
-4
-4
-5
-9
-8
-9
-11
-6
-5
-4
0
1
-3
-2
-2
-3
-3
-7
-10
-13
-15
-17
-19
-21
-19
-19
-15
-12
-12
-14
-12
-10
-9
-8
-6
-10
-10
-7
-10
-13
-9
-3
-1
10
21
31
32
21
6
-18
-53
-97
-157
-210
-235
-219
-175
-128
-86
-48
-25
-7
8
15
19
22
24
25
30
25
21
20
22
22
24
24
19
23
20
21
18
20
19
18
12
14
16
14
10
7
10
6
8
4
4
3
0
0
2
-3
-8
-10
-10
-11
-10
-8
-12
-11
-13
-15
-13
-13
-9
-9
-12
-12
-11
-10
-9
-8
-10
-9
-9
-10
-11
-8
-6
-2
-6
-5
-1
0
3
-5
-5
-4
-4
-2
-5
-3
-2
-1
2
-1
-4
-5
2
4
-1
-5
-5
-3
-3
0
-3
-5
0
-3
-5
-6
-3
-3
2
-3
0
7
5
-3
0
0
1
-2
-3
-7
-4
-4
-3
-5
-3
-3
-4
-5
-5
2
2
-2
0
-5
-6
-5
5
5
3
-3
-4
-5
-5
-8
-5
-7
-2
-7
-4
-8
-6
-7
-9
-4
-2
-3
-6
-11
-9
-7
-3
-2
-4
-9
-3
-5
-4
-2
-2
1
-1
-3
-3
1
6
5
-5
-4
-6
-8
-10
-10
-12
-14
-17
-21
-24
-20
-15
-12
-7
-9
-6
-9
-13
-11
-9
-9
-11
-9
-9
-5
0
1
11
22
31
34
20
0
-26
-62
-107
-165
-217
-233
-210
-167
-118
-76
-45
-19
-4
9
18
18
24
24
28
28
27
27
26
27
24
24
28
24
22
17
13
15
20
20
21
17
13
12
12
10
7
7
7
6
5
8
3
2
1
-4
-7
-6
-6
-5
-8
-9
-9
-9
-9
-13
-11
-12
-9
-9
-9
-16
-18
-17
-15
-11
-12
-8
-8
-7
-7
-6
-7
-4
0
1
-1
-7
-3
-5
-3
-5
-7
-4
-4
-4
-5
-4
1
-5
-1
-1
-1
0
0
-1
-3
-1
-3
-4
-7
-9
-7
-9
-9
-9
-6
-4
-4
-2
1
2
2
5
-2
-4
-3
1
-2
1
-2
-5
-4
-4
-4
-1
2
-5
-1
-2
-2
-3
-5
-3
-2
-4
-4
-6
-7
-3
-9
-5
-4
-3
-6
-4
-4
0
-4
-4
-4
-1
-6
-7
-5
-5
0
-8
-9
-10
-6
-4
-6
-8
-7
-3
4
2
-3
-4
-4
-5
-4
-8
-9
-14
-14
-15
-14
-20
-20
-20
-15
-15
-10
-15
-12
-11
-11
-7
-6
-8
-8
-8
-13
-12
-6
-4
-1
11
28
32
32
21
1
-30
-65
-109
-167
-217
-235
-212
-168
-117
-73
-40
-21
-7
7
17
18
20
25
27
26
23
23
24
24
25
24
24
20
16
19
20
18
15
15
9
14
13
13
10
9
10
8
7
3
1
3
2
-4
-5
-3
1
-3
-4
-9
-9
-7
-13
-10
-12
-10
-13
-13
-8
-11
-13
-13
-11
-10
-5
-9
-10
-8
-10
-9
-9
-5
-4
-5
-6
-5
-5
-3
-1
2
-2
-2
-2
-1
0
0
-2
0
-3
-3
-2
-3
-6
-2
1
1
-7
-5
-3
-2
-3
-4
-6
-4
2
-1
-5
2
0
-1
-2
-5
-4
-6
-5
-1
2
-1
0
1
2
0
-3
-2
-2
-5
-3
2
2
0
0
1
3
1
0
0
-3
-4
-7
-6
-7
-5
-3
-3
0
-3
-5
-2
0
-4
-5
-4
-2
2
2
-3
-1
0
-3
-4
-7
-6
-5
-9
-10
-13
-15
-16
-14
-15
-12
-14
-12
-12
-14
-10
-11
-10
-8
-9
-7
-9
-8
-7
-4
-8
-6
3
14
27
35
34
21
-1
-28
-63
-105
-157
-211
-237
-217
-168
-122
-78
-45
-19
0
11
17
21
24
30
29
28
25
24
25
23
24
22
18
17
20
21
19
15
20
16
18
15
15
11
9
9
4
4
5
4
2
0
-2
-4
-2
-4
-7
-7
-9
-11
-8
-10
-12
-12
-12
-13
-13
-11
-17
-15
-13
-14
-11
-11
-11
-8
-7
-6
-13
-10
-12
-10
-8
-6
-8
-7
-5
2
2
-1
5
4
2
2
4
2
2
-3
-4
0
-3
-3
-2
0
-5
-4
-5
-5
-6
-5
0
-2
-3
-5
1
0
1
6
0
0
0
-2
-1
-5
0
2
-1
2
-3
-3
-2
1
1
-2
-5
-2
0
-1
-5
-3
-6
-5
-4
-7
-6
-8
-9
-7
-5
-5
0
-3
-1
-4
-3
1
-1
-3
1
-2
-3
-6
-7
-8
-10
-15
-15
-15
-20
-21
-18
-14
-10
-11
-10
-6
-7
-7
-9
-7
-5
-8
-6
-8
-5
-4
-1
9
23
33
34
25
6
-22
-56
-100
-151
-196
-220
-200
-158
-110
-73
-36
-20
-2
12
13
19
20
23
24
20
22
26
21
22
19
20
20
17
17
20
17
15
15
13
14
13
11
8
9
6
1
1
1
-2
-4
-2
-5
-8
-7
-6
-9
-11
-17
-18
-16
-15
-19
-16
-18
-21
-23
-18
-20
-17
-17
-16
-19
-15
-20
-16
-14
-11
-14
-11
-10
-9
-3
-5
-6
0
-1
2
4
3
5
5
2
7
7
6
4
4
4
-3
-2
-1
2
4
2
-5
-2
-2
1
-2
2
5
-1
-3
4
1
-1
0
-1
0
0
2
1
2
3
-1
1
2
4
3
0
1
1
2
1
3
2
2
4
3
5
5
6
9
4
1
-6
-6
-5
-9
-9
-13
-15
-15
-9
-10
-10
-7
-7
-5
-6
-4
-7
-6
-6
-5
-7
-7
-6
-4
-5
1
13
23
38
39
29
13
-12
-48
-95
-149
-198
-220
-206
-164
-112
-66
-36
-15
-1
9
17
19
23
24
25
26
29
26
28
28
25
24
22
19
22
19
21
14
16
15
14
11
10
7
9
8
8
6
4
3
-1
-4
-4
-3
-5
-6
-10
-8
-12
-12
-14
-16
-17
-20
-22
-20
-21
-21
-19
-21
-19
-20
-18
-18
-16
-16
-13
-12
-15
-13
-8
-7
-5
-5
-5
3
0
3
2
3
3
6
5
10
8
6
5
2
1
2
6
0
1
4
0
-1
1
3
1
4
3
0
0
8
0
1
4
7
3
2
0
-1
2
2
-2
-2
1
1
1
0
0
-1
-2
-1
1
1
4
4
5
5
6
6
5
3
3
1
-4
-7
-8
-9
-9
-13
-13
-15
-15
-11
-13
-9
-6
-9
-10
-9
-4
-8
-7
-6
-7
-7
-4
-4
-5
3
12
21
30
36
28
15
-10
-40
-82
-132
-192
-227
-225
-185
-129
-92
-59
-27
-6
9
14
19
26
28
26
26
27
29
29
24
25
26
24
25
21
22
22
22
18
20
14
12
12
11
9
6
8
6
5
2
0
0
-2
-4
-2
-4
-7
-8
-9
-9
-13
-17
-16
-19
-17
-21
-21
-18
-19
-19
-20
-18
-22
-21
-16
-16
-15
-12
-13
-9
-11
-6
-6
-7
-3
-2
1
6
1
4
5
4
5
6
5
6
4
3
3
0
1
0
0
1
2
0
1
-4
0
0
0
0
1
0
0
-3
-1
0
-3
-6
0
-1
0
1
0
1
-3
-4
-5
2
3
8
7
4
4
2
4
4
2
-1
3
1
-7
-7
-7
-11
-9
-13
-11
-12
-13
-12
-9
-5
2
2
0
0
-5
-6
-9
-6
-7
-6
-5
-9
-6
-1
6
20
31
35
37
23
2
-34
-75
-129
-184
-235
-250
-213
-161
-108
-57
-29
-3
11
15
24
28
33
34
32
31
34
32
31
32
32
27
29
28
25
24
25
22
20
20
17
13
13
14
12
9
10
10
4
8
4
4
2
3
2
-1
-3
-5
-4
-6
1
-3
-10
-10
-10
-15
-15
-16
-14
-17
-18
-15
-12
-12
-10
-9
-4
-3
0
1
1
-3
-6
-5
-3
0
5
3
1
-3
-5
-5
-3
0
-5
-2
-1
1
1
-4
0
3
4
1
5
1
2
-6
-9
-6
-6
-5
-2
-5
-5
0
-3
-5
2
1
0
-3
-3
-3
-4
-4
-4
1
0
2
2
-1
-1
-2
-1
-5
-5
-3
-2
2
1
3
3
2
-1
2
-3
1
-5
-6
-7
-11
-12
-11
-13
-16
-13
-14
-13
-9
-8
-7
-8
-6
-5
0
-5
-7
-6
-7
-4
-2
-2
4
11
20
30
34
33
17
-7
-40
-80
-132
-185
-233
-249
-222
-166
-112
-70
-36
-10
6
16
19
25
25
29
31
29
32
29
27
27
29
21
26
21
20
22
22
18
16
17
16
16
10
11
10
8
10
4
7
4
-3
-5
-4
-4
-5
-6
-9
-13
-9
-11
-12
-14
-14
-15
-17
-13
-13
-18
-17
-18
-16
-17
-20
-21
-19
-21
-21
-19
-20
-18
-18
-15
-17
-14
-14
-13
-10
-10
-10
-9
-10
-12
-10
-10
-10
-15
-13
-7
-11
-9
-8
-11
-14
-15
-12
-19
-15
-12
-12
-9
-11
-13
-8
-10
-7
-8
-11
-10
-8
-8
-9
-8
-10
-13
-11
-12
-11
-12
-12
-10
-12
-13
-11
-14
-11
-11
-9
-4
-7
-8
-7
-7
-7
-9
-8
-13
-9
-13
-14
-15
-19
-19
-17
-20
-21
-18
-16
-16
-14
-12
-13
-12
-10
-9
-11
-10
-8
-11
-10
-12
-8
-11
-6
4
17
31
37
32
21
-5
-40
-87
-146
-191
-235
-244
-209
-157
-103
-64
-32
-11
8
15
20
25
26
28
25
24
29
28
29
23
25
21
24
24
18
21
17
17
15
16
13
9
10
9
12
8
6
4
1
4
-1
-3
-5
-3
-5
-5
-9
-11
-11
-13
-11
-12
-18
-17
-15
-18
-17
-16
-17
-18
-12
-14
-12
-15
-10
-9
-3
-4
-4
-5
-6
-5
-4
-1
3
9
8
9
10
9
12
14
13
13
12
9
8
8
7
6
5
8
10
8
4
4
3
1
-2
4
3
1
2
1
5
4
4
6
4
4
2
5
5
3
2
1
-3
6
9
8
6
8
7
5
5
1
5
3
4
2
-5
-4
-4
0
4
7
1
-2
0
2
8
9
10
6
-1
-4
-3
-4
-7
-13
-14
-17
-16
-16
-15
-12
-13
-17
-14
-11
-10
-11
-11
-11
-6
-4
-2
-7
-11
-9
-10
-4
0
12
30
39
38
27
3
-23
-63
-110
-168
-217
-240
-215
-166
-119
-78
-48
-20
2
13
20
19
25
30
27
27
29
28
28
28
23
23
23
27
22
17
20
20
28
24
18
10
9
9
5
10
10
9
7
5
2
-4
-3
-2
-6
-8
-9
-9
-11
-14
-15
-12
-16
-17
-14
-17
-17
-19
-23
-21
-19
-21
-17
-12
-9
-9
-9
-12
-13
-9
-6
-7
-3
1
5
5
2
6
9
13
14
15
13
14
7
11
8
12
10
9
8
6
3
5
9
5
2
-1
-3
1
6
2
-2
-3
2
-3
3
6
6
5
5
2
1
5
7
5
2
-1
1
2
2
2
-2
0
-3
-1
4
7
6
5
2
0
-2
3
5
6
6
7
9
10
12
12
11
8
1
-5
-8
-8
-11
-11
-12
-8
-10
-10
-9
-11
-9
-6
1
0
-8
-6
-4
-5
-10
-12
-11
-9
-10
-3
5
16
26
35
38
30
16
-9
-41
-85
-132
-185
-216
-215
-178
-132
-86
-51
-27
-12
5
15
20
22
29
29
25
26
21
22
28
25
23
21
17
18
20
22
20
17
20
14
13
13
14
12
9
9
10
9
3
3
0
-3
-5
0
-1
2
-7
-9
-13
-15
-19
-21
-19
-19
-23
-20
-21
-21
-20
-20
-19
-12
-15
-13
-15
-12
-6
-10
-8
-10
-8
-9
-8
-7
-7
-7
-4
1
7
6
3
4
7
8
10
8
9
6
1
1
-4
-5
-3
-2
0
-9
0
1
0
-3
-3
-2
1
-5
-4
-11
-9
-7
-5
-7
-4
-5
-5
-5
-7
-6
-6
-4
-2
-5
-5
-6
-3
-3
-6
-5
-6
-6
-6
-3
-5
-9
-12
-6
-8
-6
-5
-8
-7
-6
-9
-5
-3
-6
-4
-7
-5
-3
0
-10
-8
-7
-8
-8
-5
-4
-1
-2
3
0
0
-4
-8
-10
-10
-6
-9
-13
-21
-23
-21
-23
-14
-12
-16
-17
-13
-16
-13
-9
0
-5
-9
-13
-13
-11
-13
-12
-8
-3
12
24
31
29
20
9
-15
-48
-87
-129
-180
-216
-221
-192
-151
-101
-61
-31
-9
1
12
15
21
22
23
24
28
27
28
25
22
26
28
29
28
27
23
21
18
21
23
22
20
16
13
8
7
12
11
7
5
5
1
2
1
5
2
0
-4
-7
-7
-9
-9
-10
-14
-14
-10
-11
-9
-12
-12
-12
-13
-9
-8
-9
-11
-6
-5
-4
-4
-9
-3
-3
-1
1
1
0
1
4
6
7
7
7
7
6
9
8
6
5
6
7
5
5
4
1
-3
-5
0
1
-1
-1
2
3
7
6
0
-1
-1
-2
1
5
6
3
2
-5
-4
-4
-4
-3
0
-5
-3
-1
-5
-6
1
3
6
5
1
4
3
-3
1
-2
-4
-2
-6
-2
-6
-5
-1
-2
1
-5
1
-5
1
0
-4
-3
-4
3
4
6
-4
-5
-9
-7
-10
-7
-4
-1
-3
-6
-5
-3
1
1
2
4
3
1
2
5
1
-3
-6
-7
-12
-12
-16
-15
-17
-17
-19
-19
-20
-12
-7
-7
-8
-13
-15
-13
-8
-10
-12
-17
-14
-13
-13
-12
-11
0
13
26
33
27
17
1
-28
-64
-112
-172
-224
-247
-230
-183
-134
-92
-52
-24
-2
11
18
24
24
27
30
23
20
22
23
23
21
24
23
25
26
24
19
20
19
17
18
21
19
13
9
10
5
7
4
3
2
1
-3
-1
5
4
-3
-7
-8
-10
-8
-13
-10
-10
-12
-12
-15
-16
-15
-14
-14
-12
-15
-15
-13
-7
-7
-8
-6
-6
-10
-8
-4
-7
-7
1
9
5
-1
4
5
4
3
0
2
-1
3
2
1
0
-2
2
4
3
1
1
-6
-2
-3
3
3
6
-2
-4
-8
-6
0
3
-2
1
-4
-7
-7
-7
-3
-3
1
0
-3
-2
3
3
3
-5
-5
-4
-3
-3
0
-5
0
-1
-5
-7
-4
-5
-4
-7
-4
2
4
4
-2
-4
-7
-7
-8
-9
-10
-7
-6
-5
-4
0
3
2
0
-4
-5
1
4
4
3
8
2
-3
-10
-11
-15
-15
-16
-20
-18
-19
-17
-12
-12
-11
-3
-3
-13
-11
-10
-10
-8
-12
-7
-5
-7
-7
-6
0
9
18
32
34
29
10
-18
-52
-100
-153
-204
-231
-221
-178
-131
-88
-56
-25
-6
10
15
22
23
26
26
28
23
28
28
29
27
25
24
20
18
22
19
15
18
20
16
14
11
15
11
11
9
7
4
7
4
6
0
0
-2
-4
-7
-8
-6
-10
-9
-11
-13
-10
-10
-17
-19
-16
-18
-18
-19
-17
-13
-12
-12
-11
-10
-13
-11
-11
-11
-6
-5
-4
-5
-1
-1
-1
-1
5
4
3
5
5
3
2
3
-2
1
2
-5
-2
-2
-3
-3
-1
-6
-3
-6
-3
-6
1
-2
-2
0
-3
-5
-5
-6
-3
-4
-3
-5
-4
-6
-3
-5
-4
-3
-7
-4
-4
-4
-3
-1
-1
-2
-3
-2
-3
-5
-7
-5
-6
-3
-7
-8
-4
-7
-7
-7
-4
-4
-5
-5
-5
-4
-5
-4
-3
-7
-8
-6
-6
-8
-7
-10
-9
-8
-7
-9
-7
-10
-8
-7
-8
-5
-2
-2
1
4
3
-3
-8
-10
-14
-16
-18
-24
-23
-22
-22
-23
-21
-18
-17
-17
-13
-12
-13
-15
-12
-13
-12
-11
-12
-14
-11
-11
-7
4
12
24
28
24
11
-12
-45
-85
-142
-193
-237
-238
-204
-156
-108
-70
-43
-17
2
11
14
20
21
24
22
26
25
27
24
17
19
20
21
19
20
19
19
22
17
16
14
13
10
12
13
8
8
9
12
9
3
2
2
-4
-7
-7
-4
-7
-9
-6
-9
-13
-12
-15
-17
-16
-14
-15
-15
-17
-19
-15
-11
-13
-11
-14
-14
-9
-6
-8
-6
-9
-9
-5
-2
-4
2
4
2
-1
3
3
5
6
3
0
4
0
2
0
-2
-3
-6
-2
-1
-4
0
4
-3
1
2
-3
-4
-1
-3
-3
0
-1
-2
-3
-2
-2
2
0
1
0
-3
-2
-4
1
1
-1
1
4
1
-1
0
-5
-3
-4
-5
-3
-6
-5
-5
0
-3
2
-3
-4
-3
-2
1
-7
-5
-6
-3
-4
-4
-3
0
2
0
3
-2
2
1
4
-1
-4
-9
-9
-13
-12
-16
-20
-20
-20
-23
-22
-21
-12
-13
-10
-11
-8
-11
-12
-13
-11
-11
-13
-13
-11
-14
-7
-1
12
24
36
36
28
11
-17
-53
-102
-155
-210
-243
-233
-189
-138
-95
-59
-31
-7
8
15
23
24
26
28
30
31
35
33
30
32
28
28
28
25
25
19
24
22
20
23
19
21
20
19
17
17
15
11
12
12
9
9
7
5
2
2
0
-3
-3
-8
-8
-10
-9
-10
-10
-13
-11
-16
-16
-11
-9
-7
-9
-7
-6
-8
-8
-2
-1
-4
-2
-2
-2
0
1
-5
1
6
2
4
5
9
4
1
4
4
1
4
1
-2
-4
1
1
-2
1
1
-1
-5
-4
0
-1
-4
2
0
0
0
-1
0
4
0
3
0
-3
0
2
2
1
6
6
5
3
5
1
2
0
-3
3
2
3
7
3
1
0
0
0
-1
1
1
-1
4
1
3
2
1
1
-1
-3
5
0
3
6
3
6
5
8
3
3
3
-2
0
-8
-12
-11
-14
-12
-15
-19
-18
-16
-16
-14
-13
-13
-9
-10
-7
-8
-5
-7
-6
-9
-11
-8
-8
-6
10
16
28
31
24
12
-11
-43
-87
-140
-203
-247
-244
-200
-151
-100
-60
-30
-11
4
15
23
26
24
32
30
28
29
31
30
32
28
27
30
25
24
23
24
25
22
21
21
18
16
18
16
7
8
9
5
4
5
4
3
-2
-3
-5
-7
-3
-6
-6
-9
-9
-10
-11
-11
-9
-8
-8
-9
-12
-8
-7
-9
-9
-7
-7
-6
-5
-6
-6
-4
-4
0
-2
-2
-2
4
0
-2
0
0
3
5
4
3
0
-2
0
1
2
0
0
3
1
2
-1
-3
-5
-4
2
-3
0
-5
-3
-4
2
-1
-2
2
2
4
4
1
-3
4
3
1
2
0
0
1
-1
-2
3
4
1
4
5
3
2
6
-1
-3
-2
0
-7
-3
-4
-5
-3
-2
1
0
-3
-2
-2
0
-3
0
2
3
8
6
3
1
-3
-5
-7
-8
-10
-8
-14
-14
-16
-18
-21
-16
-17
-14
-11
-11
-8
-6
-10
-6
-8
-8
-6
-9
-5
-3
-4
5
14
25
30
32
17
-2
-28
-67
-117
-171
-223
-248
-224
-175
-125
-83
-51
-25
-7
2
13
20
19
23
26
27
25
25
28
23
22
22
23
21
22
20
20
16
17
16
13
16
15
11
10
9
11
6
3
5
1
-1
-3
-2
-3
-5
-6
-5
-4
-6
-9
-9
-10
-12
-16
-16
-17
-16
-14
-11
-13
-13
-15
-10
-11
-11
-13
-8
-7
-8
-8
-11
-6
-8
-5
-5
-6
-3
-2
-3
-5
1
-2
5
-1
-1
1
2
2
2
-3
-3
-2
0
-4
-4
-5
-4
-6
-1
-3
-4
-2
-3
0
1
1
-1
-4
-7
-7
0
0
-2
-5
-2
1
-4
1
-2
-3
2
-1
-7
-2
2
-5
-5
-4
-4
-6
-9
-8
-9
-8
-7
-6
-7
-11
-9
-7
-8
-5
-4
-3
-5
0
-3
0
0
2
-8
-109
-121
-98
-67
-42
-29
-12
-11
-4
-5
0
-4
-4
-4
-2
-3
-3
-5
-3
-6
-4
1
1
-1
-7
-2
-8
-5
-5
-9
-8
-4
-10
-8
-7
-8
-9
-9
-8
-4
-3
-7
-9
-9
-7
-3
-2
4
10
12
15
17
19
27
27
31
38
40
49
63
77
85
83
74
52
18
-26
-73
-128
-172
-184
-150
-95
-36
7
43
67
82
91
96
99
106
109
109
109
109
108
109
109
105
109
105
104
103
102
104
100
100
99
98
97
96
90
90
88
83
84
83
80
78
74
76
72
71
70
63
62
66
59
59
64
62
63
59
58
54
53
53
56
54
47
48
45
45
41
42
42
39
39
36
38
39
37
35
37
36
36
37
35
38
39
36
34
36
34
33
33
29
28
27
27
29
27
25
27
25
27
28
25
23
21
19
19
17
19
16
17
16
16
15
15
11
10
9
11
13
10
12
11
11
8
11
9
7
0
0
-4
-9
-11
-17
-19
-21
-20
-18
-17
-14
-14
-14
-13
-15
-16
-13
-16
-17
-15
-17
-16
-19
-19
-13
-3
6
15
18
7
-16
-46
-90
-136
-197
-251
-283
-264
-215
-157
-106
-69
-45
-24
-13
0
5
8
9
9
11
12
8
12
10
9
6
3
8
0
-5
2
-4
-6
-9
-12
-11
-12
-11
-17
-15
-17
-19
-19
-23
-21
-24
-26
-27
-31
-29
-33
-33
-31
-35
-34
-35
-36
-35
-32
-36
-37
-35
-37
-39
-36
-39
-40
-41
-40
-43
-44
-45
-43
-45
-43
-45
-43
-47
-40
-44
-43
-40
-43
-40
-37
-36
-37
-38
-38
-35
-37
-35
-35
-32
-37
-34
-36
-38
-35
-31
-34
-34
-33
-32
-33
-33
-35
-31
-34
-33
-34
-34
-36
-34
-34
-32
-37
-35
-33
-33
-36
-35
-34
-34
-30
-30
-29
-31
-29
-30
-28
-29
-29
-31
-33
-32
-36
-39
-41
-43
-43
-47
-46
-44
-42
-38
-37
-35
-35
-34
-33
-32
-35
-33
-35
-33
-34
-31
-27
-21
-10
1
12
11
-5
-27
-61
-106
-164
-220
-268
-281
-238
-192
-135
-92
-60
-41
-20
-10
-3
1
6
8
9
10
10
12
12
8
8
9
5
5
7
3
4
1
3
1
2
2
-2
-3
-2
-7
-7
-10
-11
-12
-14
-13
-16
-13
-17
-17
-21
-20
-17
-14
-19
-20
-19
-18
-18
-17
-14
-16
-15
-17
-17
-19
-21
-24
-25
-26
-24
-25
-23
-25
-25
-26
-23
-23
-20
-19
-20
-20
-23
-19
-19
-17
-14
-18
-16
-17
-17
-17
-14
-16
-14
-17
-15
-15
-13
-15
-15
-12
-10
-12
-13
-11
-8
-10
-12
-11
-9
-9
-10
-7
-6
-10
-6
-11
-7
-6
-6
-6
-5
-6
-7
-7
-5
-2
-5
0
2
0
-2
0
-2
-2
-6
-10
-11
-13
-18
-19
-23
-21
-22
-19
-20
-17
-15
-12
-12
-10
-11
-10
-12
-12
-11
-11
-13
-10
-9
0
10
22
33
29
22
3
-29
-73
-124
-187
-237
-256
-228
-174
-112
-74
-43
-18
1
10
18
22
26
25
28
26
26
30
28
30
29
26
27
30
23
26
22
22
22
19
21
20
17
17
16
16
13
13
8
7
7
7
6
5
6
5
4
4
2
1
2
3
0
0
0
-4
-2
-3
1
-5
-7
-7
-8
-9
-7
-7
-12
-11
-10
-10
-11
-11
-8
-10
-7
-8
-7
-6
-8
-6
-7
-6
-6
-9
-4
-7
-5
-5
-6
-2
-4
-6
-3
-6
-5
-7
-2
-6
0
-6
-2
-3
-3
0
-4
2
3
1
5
7
5
4
4
8
9
9
12
10
9
8
9
10
10
13
14
12
11
14
12
12
11
13
11
9
7
6
1
1
-7
-8
-8
-11
-13
-10
-12
-15
-8
-9
-3
2
-1
2
1
1
-1
0
-4
0
0
4
9
20
32
37
31
22
-5
-39
-81
-138
-191
-239
-244
-207
-155
-94
-65
-37
-13
3
15
18
23
26
28
28
25
27
25
25
26
23
20
20
21
20
19
14
19
18
17
16
18
14
12
14
11
10
8
8
8
6
8
5
5
5
4
1
5
1
6
0
0
2
-1
3
-3
1
4
-1
-7
-5
-4
-5
-4
-7
-10
-10
-11
-15
-14
-17
-17
-13
-10
-11
-12
-10
-13
-8
-11
-8
-7
-8
-8
-3
-3
-4
-4
-3
-2
-2
-3
1
-14
-99
-150
-132
-98
-63
-35
-21
-10
-4
0
-3
-1
1
2
-1
1
3
-1
2
2
0
2
0
1
-1
-4
1
-2
-5
0
-3
-3
-8
-4
-6
-5
-7
-6
-3
-6
-7
-7
-9
-3
-1
8
9
17
23
24
28
35
39
48
49
54
58
63
70
69
72
75
81
86
87
92
93
96
97
99
103
105
105
106
103
104
102
105
101
97
97
98
99
95
98
100
99
105
109
109
112
109
110
106
105
107
107
106
105
107
112
119
134
144
147
136
117
89
45
-16
-75
-140
-181
-162
-115
-57
-2
38
68
90
100
111
116
115
117
117
118
116
116
115
112
113
105
102
99
96
98
93
87
91
84
83
80
79
78
73
72
66
68
63
57
56
51
52
49
46
44
43
41
40
35
34
32
29
30
33
29
29
23
26
24
19
20
15
13
13
7
8
5
8
4
-3
-3
0
-4
-3
-6
-5
-1
-4
-1
-2
0
-2
-5
-4
-1
-7
-6
-9
-10
-9
-8
-10
-9
-13
-11
-14
-13
-12
-19
-18
-18
-19
-17
-18
-22
-19
-25
-23
-24
-25
-24
-27
-29
-32
-27
-31
-30
-31
-32
-30
-30
-35
-32
-35
-35
-34
-39
-39
-34
-36
-31
-34
-31
-35
-38
-43
-44
-46
-49
-52
-51
-55
-59
-57
-57
-59
-57
-54
-54
-49
-49
-52
-51
-52
-48
-51
-51
-53
-52
-53
-48
-44
-33
-17
-9
-8
-17
-34
-67
-113
-169
-233
-280
-297
-295
-255
-198
-143
-103
-75
-51
-35
-20
-21
-19
-14
-16
-15
-13
-13
-14
-16
-15
-14
-20
-19
-20
-20
-26
-28
-24
-26
-27
-32
-33
-33
-34
-34
-38
-39
-35
-43
-45
-43
-41
-45
-46
-49
-51
-51
-50
-51
-49
-49
-52
-53
-50
-48
-48
-50
-52
-48
-53
-48
-53
-51
-53
-52
-55
-52
-51
-51
-51
-54
-52
-53
-48
-48
-48
-48
-48
-46
-45
-45
-47
-45
-44
-43
-43
-44
-48
-45
-45
-42
-42
-41
-44
-42
-42
-40
-42
-43
-40
-42
-44
-45
-42
-42
-38
-38
-39
-42
-41
-38
-40
-37
-36
-37
-39
-36
-39
-34
-35
-38
-33
-36
-35
-35
-35
-35
-32
-32
-37
-34
-35
-35
-31
-28
-32
-26
-28
-29
-31
-34
-33
-35
-39
-44
-46
-44
-44
-45
-47
-43
-44
-42
-41
-38
-34
-31
-34
-31
-33
-32
-34
-31
-31
-28
-26
-16
-7
3
14
11
4
-23
-57
-106
-167
-230
-277
-300
-286
-231
-167
-115
-72
-39
-17
-4
8
15
16
19
23
21
21
27
24
19
19
21
20
21
19
15
15
15
13
15
12
9
10
7
9
5
6
4
3
-2
-2
-3
-3
-3
-3
-6
-6
-5
-6
-5
-9
-7
-8
-10
-6
-9
-8
-7
-4
-3
-5
-4
-6
-9
-9
-9
-9
-10
-9
-10
-11
-12
-13
-12
-13
-13
-10
-8
-7
-10
-8
-9
-9
-8
-3
-5
-6
-4
-2
-3
-2
-3
-2
-5
-5
-3
-5
-3
-2
-3
-2
-3
2
-1
1
-1
0
1
2
5
4
1
0
1
1
2
2
-1
1
1
1
-1
2
2
-1
0
0
-1
2
-5
-1
-3
-2
-1
0
1
2
3
-1
3
3
0
-3
-4
-9
-11
-9
-11
-11
-15
-18
-22
-20
-17
-13
-12
-7
-12
-10
-9
-9
-5
-7
-5
-4
-4
-4
-7
4
10
24
35
40
30
11
-19
-52
-102
-161
-223
-268
-266
-225
-167
-109
-62
-24
-1
17
27
28
30
36
37
37
38
37
39
41
42
39
38
35
37
33
34
30
30
26
26
26
25
23
22
15
10
13
16
15
14
13
9
4
1
-1
0
-1
1
-3
-3
-3
2
2
2
6
9
5
3
-3
-5
-6
-7
-7
-4
0
0
-3
-7
-10
-8
-7
-4
-3
0
3
4
4
4
1
2
1
-2
-3
-5
1
10
10
12
14
8
6
3
-7
-12
-13
-12
-10
-11
-1
-1
6
7
8
7
2
1
-6
-10
-8
-11
-6
-3
-3
-1
-5
-5
-7
-6
-8
-4
-7
-11
-8
-4
2
-5
-9
-12
-8
-5
4
2
-6
-14
-16
-3
4
4
4
0
-9
-20
-18
-11
-8
-11
-15
-27
-31
-32
-28
-29
-29
-31
-31
-29
-24
-18
-12
-13
-17
-24
-29
-34
-27
-24
-22
-13
-11
-8
2
5
3
-7
-25
-40
-68
-106
-152
-207
-237
-224
-189
-141
-93
-62
-42
-29
-14
-5
1
-3
-7
-9
-10
-10
-11
-4
-8
-11
-17
-14
-12
-16
-13
-14
-20
-19
-19
-21
-19
-18
-21
-20
-21
-21
-26
-28
-26
-27
-33
-34
-35
-31
-29
-28
-36
-39
-33
-37
-39
-42
-41
-44
-48
-41
-36
-37
-40
-42
-38
-33
-34
-36
-35
-34
-30
-29
-25
-20
-22
-19
-21
-18
-13
-11
-11
-13
-11
-9
-12
-8
-3
0
-3
-8
-10
-6
-6
-5
-3
1
1
-3
-5
-7
-8
-2
-5
-5
2
-2
4
0
-4
-6
-2
3
2
1
4
6
6
9
11
13
12
12
10
13
11
11
7
5
5
14
15
14
13
15
12
12
15
17
19
15
11
7
6
4
0
1
6
3
5
11
15
16
16
16
17
16
11
16
15
15
17
20
27
32
35
39
42
35
21
1
-17
-30
-57
-85
-101
-93
-57
-17
11
30
40
43
45
39
37
30
29
28
24
23
21
22
19
19
11
9
7
10
9
8
8
5
3
-5
-5
-5
-4
-5
-5
-3
-7
-7
-5
-4
-4
-5
-2
0
1
3
8
9
14
14
19
21
26
27
32
27
30
28
29
29
34
34
34
35
37
38
40
39
37
41
43
46
47
48
48
48
47
48
49
47
45
45
44
45
43
44
37
36
35
35
31
32
30
31
29
26
19
20
16
13
12
13
14
18
16
13
13
13
14
11
8
8
9
5
8
5
4
3
6
3
2
-3
2
3
4
4
4
4
4
3
7
4
3
2
0
-12
-13
-21
-22
-25
-21
-20
-15
-14
-9
-1
4
6
-5
-11
-7
-4
-6
-7
-11
-8
-5
4
4
9
15
25
22
6
-20
-48
-72
-101
-126
-145
-132
-96
-60
-30
-12
5
16
19
13
8
7
10
14
16
15
15
12
6
5
7
7
4
5
3
4
2
5
4
2
1
2
-4
-9
-9
-9
-5
-4
0
-3
-3
-5
-11
-15
-11
-15
-17
-13
-16
-17
-18
-18
-17
-13
-15
-13
-11
-12
-15
-14
-12
-14
-15
-15
-14
-9
-6
-11
-14
-16
-17
-15
-10
-8
-11
-7
-4
-6
-3
1
2
-3
-4
-7
-5
-8
-13
-9
-7
-4
-3
-3
-5
1
-1
-1
3
5
5
3
2
-2
-4
-1
4
3
4
4
5
3
4
5
7
8
6
7
7
7
7
4
6
7
9
9
8
12
10
10
12
11
11
10
9
7
3
-5
-9
-13
-11
-11
-10
-9
-6
-4
0
-1
0
-5
4
1
4
4
8
4
3
8
8
13
21
24
26
20
8
-16
-42
-70
-108
-148
-171
-162
-125
-79
-38
-13
1
9
16
17
15
18
16
15
16
14
16
13
11
14
13
11
13
9
9
8
7
7
5
6
6
6
3
-2
-1
-3
-4
-6
-9
-10
-12
-12
-13
-16
-12
-15
-18
-19
-22
-18
-17
-19
-18
-18
-17
-21
-22
-24
-24
-24
-29
-26
-28
-33
-30
-32
-32
-31
-33
-33
-34
-33
-29
-28
-31
-29
-27
-25
-21
-21
-18
-20
-19
-21
-17
-14
-15
-12
-12
-8
-6
-10
-11
-13
-13
-12
-12
-13
-16
-13
-12
-10
-12
-15
-11
-14
-11
-13
-9
-10
-10
-8
-10
-10
-10
-11
-11
-5
-9
-10
-9
-9
-5
-5
-5
-6
-6
-7
-8
-11
-13
-11
-11
-15
-18
-22
-27
-27
-30
-29
-28
-26
-26
-23
-22
-24
-19
-21
-21
-19
-21
-20
-24
-24
-21
-23
-17
-13
-7
6
8
1
-15
-41
-66
-105
-153
-196
-224
-219
-176
-122
-79
-49
-23
-8
0
3
7
6
4
7
7
12
9
8
6
6
7
8
9
5
8
8
7
8
8
7
7
7
7
4
5
4
2
2
0
2
1
0
-2
-3
-5
-5
-4
-1
-5
-5
-4
-5
-2
2
2
0
1
2
0
-3
-4
-5
-3
-6
-6
-7
-8
-9
-6
-6
-4
-4
-1
-2
-2
1
0
3
0
2
-1
6
5
6
6
6
3
8
8
6
9
7
7
7
5
11
12
9
9
10
13
13
12
12
12
12
9
9
7
7
9
13
10
9
11
10
11
12
8
12
12
12
12
11
13
16
15
14
14
11
10
11
9
5
-1
-6
-9
-6
-9
-8
-7
-5
-5
-4
-3
2
3
1
2
-2
0
1
2
0
-3
3
3
11
22
30
27
13
-7
-32
-71
-116
-164
-204
-217
-185
-132
-86
-45
-17
3
18
22
26
27
26
27
23
27
29
27
26
28
28
24
25
23
20
20
19
18
16
15
16
17
14
15
11
10
11
8
6
4
6
3
2
1
-3
-3
-6
0
-4
0
-3
-4
-4
-2
-3
-7
-4
-5
-6
-7
-6
-9
-9
-9
-10
-11
-12
-13
-13
-10
-9
-4
-5
-3
-3
-1
-3
-2
-2
-2
2
7
3
5
4
6
1
3
4
6
4
5
8
4
6
9
5
5
6
6
7
4
6
3
6
7
5
4
2
6
7
8
7
9
3
6
5
7
6
6
9
14
9
9
7
10
7
6
7
3
3
0
-6
-8
-11
-12
-12
-14
-14
-10
-10
-11
-11
-8
-10
-5
-4
-5
-3
-7
-10
-6
-6
-7
-4
1
10
18
25
25
12
-11
-47
-84
-133
-179
-220
-230
-192
-136
-87
-44
-18
-1
15
22
24
23
25
26
23
26
26
25
26
22
26
24
23
22
21
19
16
22
15
16
14
11
9
11
6
7
5
4
3
3
-2
2
0
-4
-4
-1
-5
-7
-2
-7
-6
-10
-7
-7
-6
-11
-10
-10
-8
-8
-9
-13
-13
-13
-16
-19
-16
-16
-16
-20
-18
-15
-15
-10
-10
-9
-7
-8
-9
-6
-6
-4
-3
-5
-6
-3
-5
-5
-3
-4
1
2
3
-5
0
-1
-4
0
-2
1
-1
-1
-2
3
1
1
-1
-5
-4
-1
-1
1
-1
0
2
-5
-4
-4
-2
0
2
1
1
-2
-5
-7
-11
-12
-12
-19
-24
-25
-25
-24
-23
-23
-24
-15
-17
-13
-12
-12
-12
-10
-11
-13
-16
-10
-12
-12
-11
-7
0
7
14
16
8
-14
-43
-85
-133
-192
-234
-252
-222
-166
-108
-64
-30
-9
12
19
28
29
32
33
34
34
37
40
35
37
36
29
23
21
21
20
20
19
18
14
8
-1
-8
-6
-1
9
11
8
3
3
0
-7
-6
-9
-4
-5
-2
-1
0
-4
-5
-6
-9
-9
-11
-13
-5
-6
-7
-9
-10
-12
-17
-17
-21
-22
-24
-17
-12
-9
-13
-17
-17
-20
-15
-13
-4
-4
0
-4
-3
1
5
11
13
15
9
5
1
4
8
8
7
6
9
8
11
12
11
2
2
3
10
12
9
4
3
2
3
6
13
18
14
11
4
-2
0
13
17
7
-3
-6
6
2
-6
-7
-9
-12
-21
-18
-9
-11
-17
-6
-1
-9
-11
-17
-18
-9
-5
-6
-7
-9
-16
-23
-17
-3
7
7
3
4
1
-17
-44
-92
-133
-163
-173
-166
-139
-94
-47
-18
-6
10
19
14
9
17
17
6
11
11
7
14
7
-7
-9
-13
-22
-17
-11
-10
-18
-32
-33
-37
-31
-27
-29
-35
-28
-23
-20
-24
-26
-44
-41
-16
-8
-16
-32
-38
-20
-2
-6
-9
-9
-11
-16
-12
2
5
-3
-12
-13
3
2
-13
-17
-9
4
-9
-11
-6
3
7
11
1
4
13
10
13
15
18
15
16
22
19
17
14
14
16
20
18
9
-2
0
10
16
19
31
25
10
12
27
23
10
7
28
20
12
10
6
0
7
17
20
3
8
25
30
11
17
25
11
-7
-12
-14
-18
-14
-12
-11
-13
-12
-12
-2
2
0
5
7
2
-3
-4
-4
0
4
8
8
9
17
23
31
34
17
-5
-36
-70
-101
-135
-160
-165
-133
-86
-43
-6
18
28
35
33
33
35
27
25
18
13
16
14
10
10
5
3
-1
-4
-5
-3
-7
-8
-11
-13
-16
-16
-19
-20
-22
-22
-24
-24
-27
-28
-30
-28
-30
-31
-31
-29
-30
-35
-33
-30
-30
-26
-27
-27
-26
-22
-21
-21
-21
-26
-18
-18
-19
-19
-19
-16
-16
-18
-18
-14
-8
-11
-9
-10
-9
-6
-5
-5
-5
-5
-5
-1
-2
-3
-6
-2
-2
-4
-6
-4
-4
-4
-5
1
-3
-3
-2
-3
0
4
3
2
-1
5
6
8
6
5
5
3
5
4
5
5
2
3
0
-9
-7
-8
-12
-11
-6
-5
1
1
1
4
5
5
6
4
5
5
5
5
6
8
6
7
14
22
28
23
9
-12
-47
-80
-119
-161
-195
-196
-159
-108
-61
-29
-8
6
14
17
18
12
16
12
11
8
9
6
8
5
1
4
-3
-5
-4
-8
-7
-11
-10
-12
-12
-16
-18
-18
-20
-22
-23
-27
-26
-29
-31
-30
-29
-32
-30
-28
-31
-29
-28
-30
-27
-28
-26
-23
-25
-23
-22
-23
-17
-16
-16
-18
-14
-14
-11
-12
-13
-10
-8
-5
-8
-4
-5
-10
-4
-1
2
10
7
4
-3
2
7
8
7
13
15
17
17
18
15
13
15
15
17
13
12
11
11
8
11
13
17
20
20
18
11
9
14
18
13
12
12
9
4
4
6
1
1
-1
-5
-6
0
5
9
12
14
12
14
19
19
18
20
16
18
15
16
23
36
45
48
36
13
-15
-43
-82
-123
-165
-192
-189
-151
-93
-40
-4
16
26
34
38
41
38
47
56
56
49
39
36
36
35
39
40
39
36
35
33
34
27
26
26
23
21
23
23
20
16
10
10
14
14
11
7
3
-3
-6
-10
-5
-3
-10
-9
-9
-13
-11
-5
-7
-6
-6
-6
-16
-25
-29
-24
-25
-13
-13
-14
-10
-15
-16
-13
-9
-9
-6
-1
0
5
6
8
1
1
6
8
13
18
17
7
2
3
3
-1
-3
-3
-7
1
7
8
10
10
5
3
2
1
6
10
10
10
7
9
10
9
11
10
6
6
0
-5
-5
-8
-11
-16
-18
-16
-5
4
5
-1
2
3
5
4
4
9
10
4
0
-2
-1
1
7
17
27
29
21
3
-19
-46
-82
-120
-158
-190
-193
-161
-113
-68
-33
-6
12
18
24
25
23
20
16
17
17
15
13
14
17
15
10
5
9
4
2
4
10
9
6
4
-3
-3
2
4
-3
-9
-13
-10
-13
-11
-12
-15
-19
-20
-22
-21
-21
-20
-22
-27
-27
-22
-26
-23
-25
-23
-19
-29
-31
-29
-25
-25
-23
-23
-21
-18
-11
-19
-15
-10
-6
-8
-4
-3
-4
2
12
9
5
5
2
3
4
2
-3
-5
-11
-7
-8
-10
-16
-17
-18
-19
-25
-24
-18
-13
-11
-9
-13
-12
-9
-5
0
-5
-1
0
-5
-3
3
6
8
2
4
4
0
-3
-1
3
0
0
2
8
9
15
16
21
20
23
24
25
28
26
29
31
29
31
32
30
36
44
48
44
30
7
-17
-38
-64
-101
-124
-114
-82
-47
-15
7
31
41
41
40
36
29
25
23
19
15
10
8
11
8
8
9
12
3
-5
-6
2
3
4
1
0
-4
-12
-17
-13
-8
-9
-8
-11
-15
-17
-17
-18
-23
-22
-23
-22
-24
-25
-31
-37
-41
-29
-29
-22
-24
-28
-35
-34
-30
-25
-19
-15
-23
-26
-26
-25
-26
-22
-18
-16
-13
-4
-7
-1
-8
-8
-4
2
4
-5
-4
-8
-6
-2
-1
-5
-5
-2
-3
-5
-7
-8
-9
-4
0
0
-4
-13
-11
-5
0
-5
-3
-2
-3
0
4
5
9
6
8
0
-4
0
7
10
10
6
-2
-10
-7
-7
-13
-15
-21
-14
-15
-16
-17
-16
-17
-7
-3
1
4
3
4
-3
-5
-2
0
-3
-2
-5
-3
7
23
37
34
31
17
-10
-34
-63
-93
-123
-148
-135
-107
-64
-28
-2
21
32
30
27
29
30
23
28
26
24
16
13
11
11
14
13
14
14
12
12
7
9
9
9
3
-3
2
2
4
3
0
-4
-3
-6
-8
-10
-13
-14
-18
-16
-16
-20
-21
-24
-25
-21
-18
-15
-16
-17
-21
-20
-23
-20
-20
-16
-16
-16
-18
-18
-17
-13
-12
-9
-11
-11
-5
-5
-4
-5
-5
-9
-5
-2
-5
-3
-6
-6
-6
-10
-7
-7
-8
-6
-3
-6
-3
-8
-3
-6
-2
1
-2
3
-2
2
6
5
2
8
6
5
8
7
9
8
10
6
8
6
6
4
5
7
5
7
4
6
4
3
-3
-7
-11
-8
-16
-14
-20
-21
-21
-16
-15
-16
-12
-11
-9
-7
-9
-8
-4
-9
-6
-8
-10
-9
-8
-7
1
7
17
22
25
11
-8
-35
-65
-102
-137
-169
-176
-147
-105
-67
-32
-13
3
14
16
16
19
16
18
17
18
16
17
17
17
15
16
14
12
16
11
12
14
9
10
6
6
5
1
3
2
2
1
-2
-2
-6
-6
-10
-9
-10
-10
-10
-12
-13
-15
-14
-16
-17
-18
-18
-17
-17
-18
-17
-21
-24
-25
-19
-21
-25
-18
-22
-21
-19
-18
-16
-17
-15
-14
-13
-13
-13
-10
-12
-11
-10
-13
-17
-17
-15
-19
-18
-21
-21
-23
-25
-23
-23
-19
-22
-20
-22
-19
-25
-27
-25
-26
-27
-26
-32
-32
-31
-33
-35
-30
-32
-29
-28
-33
-34
-27
-30
-30
-32
-29
-28
-25
-23
-27
-24
-20
-21
-23
-21
-20
-17
-14
-16
-19
-20
-18
-24
-25
-27
-28
-27
-25
-25
-19
-12
-11
-8
-8
-6
2
-2
-3
0
-1
-6
-7
2
-1
6
11
25
37
40
37
22
-3
-37
-79
-127
-184
-228
-227
-185
-130
-74
-33
-6
11
28
30
41
41
39
43
42
43
44
39
39
42
41
39
37
34
32
34
35
34
34
36
33
27
29
26
22
18
20
19
17
19
20
16
13
6
8
3
3
-3
-1
-5
-6
-7
-5
-4
-4
-4
-2
-4
-5
2
0
-3
1
-4
-4
-4
-9
-5
-4
-3
-4
-1
-1
2
1
3
6
2
3
3
6
8
7
7
8
9
11
11
14
6
2
1
-1
2
8
6
5
1
0
-3
0
-5
0
-1
-3
2
1
0
-2
-6
-7
-9
-8
-13
-10
-12
-10
-10
-8
-15
-16
-13
-15
-16
-21
-20
-20
-21
-14
-11
-10
-9
-12
-7
-9
-9
-13
-12
-19
-17
-17
-17
-19
-21
-22
-23
-29
-28
-29
-35
-40
-40
-47
-43
-44
-39
-35
-35
-33
-32
-28
-26
-26
-24
-21
-23
-18
-17
-14
-6
2
11
13
14
-1
-21
-51
-91
-143
-200
-246
-259
-220
-164
-111
-65
-35
-13
3
11
20
24
25
28
27
28
29
29
27
24
26
21
23
23
21
21
19
14
13
13
9
7
2
6
5
6
7
2
2
2
-3
-1
-3
-6
-4
-6
-7
-4
-5
-5
-5
-7
-7
-7
-9
-4
-7
-6
-7
-4
-6
-6
-11
-8
-9
-9
-10
-13
-11
-12
-12
-13
-13
-11
-11
-13
-8
-4
-4
-5
0
-3
-1
-2
-1
3
4
6
4
2
6
5
4
5
6
7
8
13
10
9
10
7
7
9
9
9
10
8
6
8
5
7
4
5
2
0
1
1
-1
1
1
3
6
6
8
7
6
9
1
6
5
4
3
5
5
9
6
4
6
11
7
5
6
-1
1
-4
-6
-13
-12
-12
-17
-12
-10
-9
-7
-9
-4
-6
-5
-5
0
2
1
1
-1
3
5
14
28
34
41
32
18
-7
-41
-81
-130
-183
-222
-227
-182
-128
-78
-35
-11
8
23
32
37
41
42
40
41
41
37
42
37
35
34
34
32
34
28
29
27
24
27
18
17
18
13
12
9
6
7
4
0
3
4
4
6
4
0
-2
0
4
2
-2
-7
0
1
-3
-5
-10
-3
-5
1
-2
-5
-6
-6
-4
-9
-8
-9
-7
-7
-9
-6
-7
-7
-6
1
0
-2
0
0
6
4
6
7
6
-1
-3
3
4
6
6
6
7
4
5
7
6
6
4
4
6
7
7
8
8
15
15
19
17
20
18
17
15
12
16
11
16
19
19
17
16
9
12
9
10
7
10
14
11
9
7
3
4
2
0
-3
-5
-5
-5
-4
-6
-7
-5
3
2
4
4
4
-3
-2
0
-3
-1
-1
-1
2
3
9
16
23
26
19
2
-26
-59
-95
-137
-180
-203
-182
-139
-92
-54
-23
-7
8
16
15
21
20
20
23
19
24
24
26
25
20
24
24
23
24
19
19
17
18
17
16
16
17
15
11
9
9
9
5
5
4
4
6
2
1
1
3
-2
-3
4
2
-1
-2
-2
-7
-10
-10
-13
-16
-16
-14
-13
-12
-15
-12
-15
-13
-10
-17
-16
-17
-12
-16
-11
-7
-7
-9
-7
-5
-3
-3
-5
-7
-5
-4
-9
-10
-8
-9
-11
-11
-12
-10
-11
-15
-10
-13
-12
-11
-14
-13
-12
-11
-8
-9
-10
-11
-8
-6
-11
-7
-4
-6
-10
-6
-4
0
-3
-1
-3
0
0
2
-3
-3
0
-6
0
-3
-6
-14
-12
-12
-14
-19
-15
-12
-13
-10
-15
-13
-9
-9
-9
-9
-5
-2
4
-4
-4
-4
-4
3
13
17
14
2
-16
-40
-71
-113
-159
-204
-227
-200
-155
-105
-63
-35
-13
-2
8
11
11
17
21
21
21
18
20
19
18
18
18
16
13
12
11
10
9
9
7
7
9
8
7
5
7
6
2
1
4
1
-1
-2
-3
-4
-3
-3
-6
1
-4
1
1
-3
1
-3
-2
-2
1
3
2
1
2
1
-2
-5
-3
-8
-9
-6
-5
-9
-6
-4
-9
-10
-6
-4
-5
-5
-6
-4
-2
0
-2
-7
-6
-3
-5
-7
-7
-7
-6
-7
-10
-9
-11
-9
-9
-7
-7
-9
-5
-9
-3
0
-4
-7
-10
-9
-8
-4
0
2
4
4
4
1
5
1
2
3
2
0
-7
-10
-8
-13
-19
-16
-20
-21
-23
-20
-20
-17
-17
-15
-11
-11
-10
-10
-11
-7
-7
-13
-7
-7
-5
1
9
15
22
18
4
-16
-45
-79
-120
-170
-212
-225
-190
-144
-92
-51
-24
-6
8
13
19
24
21
28
28
26
26
29
28
23
27
25
27
27
29
28
24
22
19
24
19
21
23
19
14
13
11
10
12
10
12
9
7
5
8
8
7
12
9
8
9
10
11
8
8
8
7
5
3
4
3
1
2
0
-4
-5
-10
-10
-12
-10
-15
-14
-10
-14
-14
-9
-13
-10
-10
-8
-9
-8
-6
-8
-8
-9
-11
-4
-5
-5
-5
-7
-5
-7
-4
-6
-3
-5
-4
-5
-5
-7
0
-5
-6
-7
-7
-7
-7
-8
-8
-5
-3
-5
-5
-2
-1
3
1
1
4
3
1
1
-4
-3
-4
-12
-17
-14
-15
-11
-7
-8
-8
-8
-3
-5
-5
-5
-9
-8
-7
-4
-4
-2
6
6
14
22
27
25
12
-14
-43
-83
-129
-180
-225
-241
-208
-153
-105
-59
-28
-7
5
14
19
22
25
25
25
27
27
25
25
25
24
26
24
23
18
21
17
18
19
15
20
14
11
12
11
11
8
8
7
5
1
3
0
-4
-1
2
-1
1
-3
-5
-2
-7
-1
-5
2
0
-3
0
2
-2
-1
-1
-5
-6
-8
-9
-12
-8
-9
-11
-11
-12
-15
-18
-15
-12
-14
-11
-10
-7
-5
-5
-1
-1
0
0
-5
-5
2
-2
5
2
4
5
4
4
3
0
1
-3
-3
-3
-1
-5
-5
-3
-2
-3
-2
-4
1
-3
0
-3
-3
-2
3
3
1
2
2
-7
-2
-4
-9
-8
-12
-16
-20
-18
-15
-12
-12
-5
-7
-5
-6
-5
-5
-5
-8
-4
-6
-5
2
1
9
15
21
17
8
-14
-49
-85
-126
-175
-224
-237
-208
-156
-101
-56
-31
-9
5
13
18
23
27
29
34
35
34
35
32
31
33
34
32
36
31
27
27
24
19
22
19
22
19
18
19
11
11
13
11
10
8
3
6
8
5
5
7
8
3
5
4
6
-1
4
6
4
2
0
-4
-4
-4
-11
-10
-13
-16
-19
-16
-16
-15
-17
-14
-12
-17
-12
-12
-14
-11
-12
-9
-8
-8
-5
-6
-11
-5
-5
-6
-4
2
4
-1
1
-1
-2
-3
0
0
0
-5
0
1
-3
-2
-5
-3
-4
-5
2
5
8
5
9
8
9
11
13
10
6
3
2
-2
-5
-4
-7
-9
-11
-9
-8
-4
-2
1
-2
0
1
1
2
-2
0
0
-1
4
0
4
7
15
22
25
19
2
-23
-61
-99
-149
-195
-235
-230
-185
-130
-81
-46
-16
-3
11
17
17
23
22
24
25
26
23
25
25
22
23
24
19
21
17
18
15
18
16
12
11
11
7
10
5
6
6
6
8
1
1
1
4
0
2
-1
-1
-2
4
4
4
5
4
6
3
5
-4
-2
-8
-9
-8
-9
-13
-12
-15
-18
-17
-18
-21
-19
-16
-21
-21
-17
-16
-17
-10
-7
-9
-5
-6
-3
-5
-1
-2
2
2
1
1
2
-2
1
2
3
-2
0
0
-2
-3
-4
-2
-1
-3
-2
-3
0
-1
-3
-6
-1
1
-1
-4
-5
-5
-7
-9
-8
-14
-14
-19
-21
-15
-16
-15
-13
-9
-9
-4
-10
-6
-8
-9
-8
-8
-12
-6
-15
-7
-5
8
16
18
11
-8
-37
-69
-112
-154
-202
-231
-222
-175
-125
-81
-49
-29
-7
7
14
17
18
18
15
19
22
24
21
18
20
19
16
15
12
16
7
9
9
7
8
11
7
11
8
7
10
9
1
2
4
3
2
-3
-6
-6
-9
-3
-5
-1
-6
-7
-4
-2
-4
-3
-8
-6
-6
-2
-4
-7
-7
-15
-14
-18
-16
-14
-16
-15
-16
-19
-16
-17
-15
-15
-16
-17
-12
-11
-7
-8
-12
-8
-9
-8
-9
-7
-7
-11
-9
-9
-9
-8
-9
-6
-6
-9
-6
-7
-4
-6
-4
0
2
3
-3
3
2
2
4
-1
2
0
-6
-7
-13
-15
-17
-16
-15
-17
-14
-15
-12
-9
-7
-6
-5
-6
-10
-8
-8
-13
-10
-11
-11
-9
-7
6
20
24
17
3
-23
-54
-93
-138
-191
-229
-236
-208
-154
-97
-62
-30
-11
4
8
15
20
19
23
24
24
24
23
23
25
24
21
20
21
20
17
17
15
19
16
17
15
13
16
13
12
12
5
8
8
9
4
1
1
5
3
3
3
3
3
6
4
8
8
10
13
12
12
6
6
8
-1
5
-1
1
-1
-3
3
1
-4
-5
-6
-3
-9
-6
-6
-7
-5
-5
-6
-5
-5
-9
0
-6
-7
-5
-5
2
1
3
-1
-1
6
1
2
-2
0
0
1
-1
2
1
2
0
3
4
3
4
1
3
-2
-7
-8
-13
-13
-15
-18
-21
-16
-17
-12
-9
-9
-5
-5
-7
-1
-5
-3
-3
-6
-6
-6
-3
1
2
16
20
21
14
-6
-33
-63
-111
-153
-206
-240
-238
-191
-138
-91
-50
-25
-5
7
19
26
28
33
37
35
38
34
34
35
33
33
34
29
29
32
30
27
19
17
13
9
11
11
8
9
9
3
3
5
3
5
3
0
-1
0
-2
4
3
1
2
4
-5
-3
-3
1
1
0
-5
-3
-7
-7
-13
-14
-15
-18
-16
-20
-19
-23
-24
-25
-24
-26
-22
-23
-21
-19
-17
-17
-17
-11
-15
-14
-13
-15
-12
-13
-13
-11
-9
-11
-10
-11
-12
-13
-7
-9
-11
-10
-10
-7
-6
-5
-4
-6
4
1
3
4
0
-3
-5
-6
-10
-12
-13
-15
-19
-17
-16
-18
-14
-13
-13
-12
-10
-13
-17
-12
-12
-11
-8
-10
-11
-8
-7
2
6
15
24
16
2
-14
-44
-81
-123
-174
-222
-232
-206
-148
-103
-61
-30
-15
4
9
18
16
19
22
21
21
23
20
23
22
21
21
20
19
17
22
20
22
17
20
15
11
12
13
11
10
8
6
3
4
2
4
6
2
3
1
3
4
1
2
5
5
4
6
6
7
6
8
10
10
7
5
6
2
-1
-2
1
0
1
4
2
1
-3
1
-2
-2
-6
-6
-6
-4
-6
-1
-1
-3
-1
4
-2
1
2
1
4
1
3
0
4
3
1
6
4
4
2
3
6
6
6
6
5
3
11
11
13
9
12
10
6
9
2
2
-4
-2
-6
-6
-8
-13
-9
-8
-9
-4
-4
1
0
2
-3
1
3
2
4
2
3
5
8
15
21
32
25
16
-2
-31
-63
-106
-157
-205
-232
-219
-170
-111
-65
-31
-3
14
23
33
35
38
42
45
46
44
48
45
44
44
43
41
42
37
35
35
32
34
32
32
29
29
31
27
26
26
23
23
22
22
20
16
18
18
15
20
17
17
19
16
20
17
23
21
20
15
17
13
15
16
13
11
12
12
9
6
4
1
-4
-1
-4
-5
-7
-4
-8
-3
-2
-3
0
0
-4
-4
-2
-4
0
-4
-2
-1
-1
-1
-4
-4
-4
-6
-6
-1
0
-3
-3
0
1
-5
1
-5
-4
0
-4
0
5
10
10
9
6
8
6
5
7
7
9
7
6
5
5
2
1
-3
-8
-11
-14
-14
-17
-10
-9
-8
-7
0
-6
-2
-3
0
-2
-2
0
0
3
0
0
-1
4
15
25
29
24
10
-15
-43
-88
-133
-184
-224
-223
-185
-130
-81
-45
-18
-2
13
19
23
27
27
24
23
24
25
23
26
23
24
22
23
19
24
21
21
20
21
21
20
17
20
12
12
10
12
9
6
6
5
7
5
6
5
3
5
5
9
7
10
12
9
10
10
12
13
12
12
13
12
8
8
2
4
-2
-1
1
-5
0
-5
-5
-5
-6
-7
-7
0
-6
-1
-4
-6
-10
-9
-6
-1
-3
4
-3
-3
-6
-4
-3
-3
3
2
2
-2
-4
-3
-3
2
-2
2
0
0
-2
-2
-1
-4
0
0
0
-2
0
1
-4
0
-4
-4
-4
0
0
1
3
3
5
6
2
5
3
-2
-4
-3
-9
-10
-15
-14
-16
-15
-15
-11
-8
-10
-7
-7
-4
-5
-6
-6
-5
-5
-5
-2
-3
-2
6
17
23
27
23
12
-15
-44
-85
-134
-190
-231
-232
-193
-138
-90
-52
-25
-7
6
16
22
25
27
31
32
34
33
34
29
32
32
31
30
30
28
20
24
24
27
23
24
21
19
21
18
18
15
10
9
6
5
6
6
4
4
2
2
5
3
6
3
7
5
9
6
9
8
10
9
9
9
9
7
4
0
1
-2
-5
-8
-9
-9
-13
-13
-14
-13
-15
-11
-17
-11
-15
-15
-13
-14
-13
-13
-10
-13
-10
-13
-11
-10
-10
-9
-11
-10
-11
-9
-8
-7
-9
-9
-6
-7
-6
-3
-7
-3
-8
-4
-9
-4
-4
-4
-3
-7
-5
-7
-7
-9
-9
-8
-9
-10
-9
-8
-7
-8
-9
-7
-9
-8
-9
-11
-12
-15
-13
-15
-15
-20
-21
-29
-26
-27
-27
-24
-24
-23
-21
-24
-21
-22
-21
-21
-23
-25
-20
-23
-19
-17
-13
-1
8
5
3
-17
-43
-75
-116
-164
-215
-245
-228
-186
-135
-93
-60
-35
-21
-8
-3
8
8
11
8
10
9
13
10
16
11
9
9
10
10
9
6
3
8
4
4
4
2
5
6
1
0
-3
-3
-4
-5
-8
-10
-11
-8
-12
-6
-9
-9
-12
-14
-13
-14
-13
-12
-11
-10
-11
-11
-7
-8
-10
-11
-13
-17
-16
-20
-21
-19
-21
-17
-19
-20
-18
-20
-18
-20
-15
-14
-15
-17
-12
-12
-13
-12
-14
-14
-15
-18
-18
-17
-15
-15
-18
-16
-15
-21
-16
-16
-16
-18
-17
-16
-16
-13
-12
-13
-12
-12
-8
-12
-12
-14
-13
-14
-11
-12
-13
-13
-10
-12
-8
-9
-7
-10
-6
-7
-4
-8
0
-7
-2
0
-3
-4
-6
-7
-8
-12
-15
-15
-17
-18
-19
-18
-17
-16
-16
-14
-13
-10
-8
-9
-8
-9
-5
-5
-6
-6
-6
-2
3
11
21
23
22
6
-19
-45
-86
-125
-172
-208
-204
-173
-120
-80
-43
-20
-5
6
10
18
20
22
21
23
25
23
26
26
24
27
23
19
22
21
17
19
15
17
16
13
16
18
18
18
11
17
12
17
13
8
11
8
4
8
7
5
3
5
4
3
7
8
10
5
10
7
8
10
11
9
9
7
8
7
-1
-1
2
-2
-2
-5
-4
-7
-5
-7
-5
-10
-11
-13
-7
-8
-4
-6
-3
-5
-5
-4
-5
-4
-2
-7
-1
-3
0
-3
0
2
0
1
2
-1
1
-1
-3
-2
2
1
3
-2
4
1
4
6
3
6
3
4
1
4
-1
0
5
3
1
5
1
3
5
6
8
11
9
12
11
11
7
9
4
2
-1
-5
-7
-11
-11
-12
-9
-11
-7
-8
-5
-5
-6
-9
-5
-8
-8
-7
-9
-7
-5
-6
-2
1
11
17
23
16
3
-15
-45
-79
-128
-182
-224
-231
-199
-147
-91
-54
-27
-11
1
9
9
11
15
20
22
21
26
23
23
22
22
21
19
19
19
23
21
20
18
16
12
15
14
13
16
11
13
11
14
11
7
10
7
6
7
6
7
3
7
3
7
5
6
5
11
10
13
11
14
10
16
12
12
8
9
8
6
6
5
7
3
2
-3
-2
-3
-4
-3
0
-2
-1
3
0
4
-1
3
2
4
-2
1
-1
2
1
4
1
3
2
2
3
4
5
3
1
6
3
1
2
0
-1
4
-1
0
-1
-6
0
1
4
4
5
1
4
-1
-1
1
-3
3
2
2
-3
1
0
-2
1
-2
4
2
4
5
3
5
7
11
7
6
5
4
1
-3
-4
-8
-10
-16
-12
-14
-12
-7
-11
-4
-4
-6
-6
-5
-5
-5
-7
-9
-8
-7
-6
-1
8
18
21
20
8
-11
-41
-75
-116
-167
-217
-230
-202
-153
-100
-58
-27
-12
5
13
19
23
32
28
30
30
28
31
31
32
34
31
32
27
30
27
29
25
28
25
24
17
21
19
13
9
17
17
17
18
15
11
10
11
8
10
9
5
9
11
10
7
11
10
13
11
14
12
9
8
11
7
6
6
4
1
-4
-5
-2
-6
-4
-9
-13
-5
-9
-9
-9
-11
-5
-6
-9
-10
-7
-10
-8
-7
-5
-6
-5
-6
-4
-7
-9
-5
-6
-7
-9
-5
-4
-4
-3
-4
-5
0
-3
-3
-5
-3
-2
-4
0
-1
1
0
2
0
1
-2
2
2
3
3
3
2
1
1
3
4
2
4
-3
2
-2
-1
-4
1
-1
2
4
-2
4
5
3
1
3
-3
-3
-4
-10
-12
-17
-16
-19
-16
-15
-17
-16
-15
-10
-11
-11
-10
-11
-16
-17
-14
-15
-18
-16
-8
-6
3
11
14
6
-4
-27
-57
-94
-135
-183
-227
-237
-202
-150
-103
-60
-38
-15
-3
8
12
14
15
18
21
15
19
20
18
20
17
18
17
17
15
17
17
14
13
14
12
12
8
9
7
9
5
5
1
6
4
5
4
4
2
2
0
3
-1
-2
-3
1
3
4
1
6
1
4
2
-1
3
-2
-6
-3
-8
-12
-8
-11
-15
-14
-16
-13
-16
-14
-14
-14
-14
-17
-15
-12
-13
-12
-13
-10
-10
-11
-13
-12
-10
-13
-13
-7
-12
-9
-9
-9
-6
-8
-7
-8
-5
-6
-6
-4
-9
-7
-4
-4
-6
-6
-7
-5
-11
-3
-10
-7
-7
-7
-9
-9
-7
-5
-5
-4
-7
-8
-5
-8
-5
-7
1
-2
-3
0
-5
0
1
-4
-2
-2
-2
-5
-8
-7
-11
-13
-14
-17
-20
-21
-22
-19
-21
-16
-14
-12
-13
-9
-11
-9
-11
-9
-12
-13
-11
-13
-8
-2
7
13
17
2
-17
-44
-76
-122
-166
-212
-233
-198
-155
-101
-62
-36
-15
0
9
15
17
22
23
22
21
21
24
21
24
21
23
20
20
20
15
17
19
15
17
15
16
12
12
8
10
12
8
8
6
3
3
5
3
2
0
0
2
3
5
6
8
3
3
-1
3
6
3
3
-1
-4
-5
-6
-8
-9
-13
-11
-15
-11
-13
-14
-12
-10
-12
-11
-11
-10
-13
-9
-10
-7
-7
-5
-8
-8
-7
-7
-7
-8
-4
-5
-7
-3
-7
0
-2
-4
-3
-3
-4
-1
-4
-2
-6
-6
-3
-2
-2
-5
1
-2
0
0
1
2
1
2
3
0
4
-1
4
2
3
2
-2
3
2
0
3
4
5
8
7
3
2
0
0
-3
-7
-11
-13
-19
-16
-14
-16
-15
-10
-11
-11
-6
-9
-8
-5
-11
-8
-8
-5
-6
-9
-6
0
4
13
13
9
-7
-31
-59
-105
-145
-195
-228
-214
-175
-125
-80
-45
-25
-6
6
7
13
20
23
25
29
24
27
27
24
27
24
23
25
23
22
23
21
16
19
20
16
14
16
10
12
9
4
7
7
8
7
6
2
6
2
2
3
2
6
7
4
7
3
4
7
8
9
8
5
6
3
2
-4
-5
-12
-8
-10
-13
-13
-14
-9
-9
-7
-10
-11
-4
-7
-4
-4
-5
-6
-5
-4
-3
-5
-2
-4
0
2
-4
1
-3
-6
0
-5
-4
5
4
6
-1
-3
0
2
3
3
3
0
1
-3
-4
-1
0
-2
-5
-3
-4
-2
-5
-5
-2
1
2
3
1
4
-2
4
0
1
2
-3
-3
-4
-12
-13
-14
-14
-14
-14
-12
-9
-4
-4
-3
-3
3
1
4
2
4
1
8
5
3
9
9
15
18
18
12
-10
-38
-68
-107
-149
-183
-209
-192
-152
-111
-74
-41
-20
-3
9
18
22
23
22
25
26
28
28
26
28
28
26
25
22
19
17
17
14
16
18
13
15
14
13
16
10
8
7
6
6
7
3
4
3
-1
2
1
4
5
5
5
6
6
10
8
7
12
7
8
7
1
3
3
4
-2
-5
-5
-7
-5
-9
-9
-10
-12
-9
-11
-8
-7
-4
-5
-4
0
-3
-2
2
0
1
0
-4
0
1
3
4
2
6
2
2
1
-3
-3
1
2
3
3
2
8
4
2
4
4
4
4
-3
2
-1
4
4
2
3
4
0
3
0
0
-4
-6
-9
-13
-19
-21
-21
-23
-19
-18
-16
-12
-13
-12
-8
-8
-8
-8
-11
-6
-12
-13
-14
-11
-9
-5
6
6
11
2
-18
-38
-71
-106
-146
-182
-201
-195
-157
-112
-79
-50
-30
-15
-2
7
10
18
18
15
19
23
22
24
24
21
19
20
15
17
16
17
15
16
16
12
15
13
11
14
11
6
11
6
6
4
8
5
6
6
2
3
3
2
5
1
-1
1
-3
3
4
0
4
1
2
-5
-5
-4
-12
-11
-14
-17
-12
-15
-17
-16
-12
-17
-14
-16
-13
-12
-10
-8
-11
-5
-11
-8
-9
-8
-13
-11
-11
-11
-11
-13
-12
-13
-11
-8
-10
-9
-11
-8
-9
-6
-5
-6
-8
-5
-8
-6
0
0
-5
1
-1
2
4
2
4
-2
1
-4
-5
-9
-8
-9
-16
-16
-14
-17
-16
-13
-10
-7
-8
-5
-6
-4
-5
-4
0
-5
-4
0
-1
2
7
12
18
28
26
16
-5
-33
-69
-117
-163
-207
-229
-206
-158
-110
-70
-37
-15
3
14
19
19
23
28
30
30
27
32
30
31
29
27
25
24
21
15
17
20
15
17
16
11
11
10
9
9
8
7
0
5
3
-2
-2
-1
-3
0
-4
-7
-5
-4
0
-4
0
-4
0
0
0
2
0
2
2
-6
-3
-7
-5
-7
-11
-12
-13
-14
-13
-14
-8
-15
-8
-11
-6
-8
-9
-7
-8
-6
-9
-7
-6
-10
-7
-7
-6
-8
-5
-7
-8
-7
-4
-5
-4
-7
-4
-5
-3
-2
-3
-2
-2
-1
2
3
1
3
3
5
5
6
4
0
-4
-7
-11
-13
-12
-15
-18
-15
-14
-12
-11
-13
-7
-5
-5
-6
-5
-3
-3
-5
-3
-4
-2
-1
3
11
18
30
32
26
14
-12
-46
-93
-147
-199
-235
-226
-184
-128
-82
-45
-22
0
10
17
21
21
21
22
28
26
25
28
24
24
24
24
21
20
22
21
21
15
20
18
18
14
12
11
10
10
8
7
3
3
2
2
4
0
0
-2
1
3
3
1
8
5
6
8
6
4
7
9
12
10
12
7
3
3
1
-3
1
-3
-1
1
-3
-5
-5
-7
-7
-5
-4
-6
-8
-8
-4
-7
-6
-7
-8
-10
-7
-10
-12
-11
-6
-9
-6
-7
-5
-7
-7
-7
0
-5
-1
1
0
3
1
1
4
2
-1
-2
-4
-10
-9
-11
-13
-15
-15
-13
-9
-9
-5
-5
-2
-4
-3
-2
-2
0
-2
-5
1
-3
-3
-3
-3
1
10
24
32
28
17
-4
-39
-76
-137
-186
-236
-253
-228
-170
-115
-72
-34
-13
8
20
27
32
33
34
37
36
36
38
34
35
36
35
35
36
31
29
26
28
26
22
25
18
18
18
18
14
13
11
10
7
6
6
5
3
1
3
-3
-3
1
3
4
4
-2
1
4
3
4
4
2
3
3
4
3
0
0
-3
-7
-9
-7
-8
-5
-7
-8
-7
-8
-4
-4
-4
-4
-2
-4
-5
-6
1
0
-6
-5
-6
-5
-7
-5
-5
-9
-7
-6
-6
-6
-6
-3
-6
-5
-3
-3
-9
-2
2
-2
1
3
2
4
2
3
2
-1
-5
-4
-9
-12
-13
-15
-15
-16
-11
-10
-10
-6
-6
-9
-6
-8
-11
-10
-13
-9
-12
-11
-13
-11
-10
-3
5
18
15
13
-1
-30
-65
-108
-162
-218
-262
-265
-222
-166
-113
-69
-38
-19
-3
6
10
15
19
20
18
20
23
22
21
19
16
19
17
19
16
13
10
12
8
8
10
8
7
4
1
2
0
1
-3
-2
-4
-8
-7
-8
-10
-10
-10
-11
-14
-10
-13
-11
-12
-8
-13
-11
-11
-13
-8
-9
-12
-15
-15
-19
-18
-20
-20
-20
-19
-20
-18
-19
-18
-16
-16
-13
-14
-8
-10
-7
-11
-13
-9
-12
-13
-11
-12
-11
-8
-13
-12
-10
-8
-11
-13
-7
-7
-7
-7
-7
-9
-7
-9
-9
-5
-8
-8
-6
-5
-5
0
-4
-2
-1
-3
6
3
1
1
0
-4
-4
-9
-13
-10
-13
-12
-17
-12
-13
-11
-9
-9
-9
-7
-4
-4
-5
-5
-3
-3
-6
-3
-3
-3
2
10
17
32
34
29
12
-16
-58
-106
-160
-222
-256
-245
-198
-141
-91
-55
-25
-5
8
18
25
28
25
32
31
31
33
33
33
30
30
31
23
25
29
23
24
22
26
21
24
18
17
16
12
13
12
10
7
5
9
4
7
6
5
3
1
3
-2
2
2
2
0
-3
-1
1
3
4
3
8
3
6
3
0
-3
0
-3
-2
-7
-3
-5
-7
2
1
1
-3
3
6
7
5
7
7
4
7
5
1
4
2
0
0
-2
-2
3
2
-1
0
-4
-1
-2
-3
-2
1
5
5
8
5
6
4
3
1
3
2
3
2
6
6
6
1
-2
4
4
3
6
3
1
-6
-7
-14
-14
-19
-20
-24
-23
-24
-23
-24
-24
-18
-21
-20
-18
-16
-16
-15
-17
-18
-21
-19
-18
-17
-14
-10
-8
8
15
20
20
7
-20
-55
-107
-163
-220
-267
-273
-227
-161
-101
-60
-20
8
23
32
45
54
55
58
59
61
57
60
59
59
58
56
57
56
55
56
54
53
51
50
49
50
48
47
49
49
45
44
42
41
42
44
44
43
41
41
42
41
41
41
42
43
44
47
46
44
44
46
44
42
44
38
44
35
34
35
34
32
30
29
26
27
27
27
28
31
30
31
32
32
34
33
28
29
27
27
25
22
16
14
11
14
16
14
18
20
19
20
23
17
17
20
19
19
16
18
17
15
17
16
16
16
17
18
19
15
15
17
16
12
10
11
11
12
9
8
10
8
5
3
7
4
4
5
6
5
4
8
8
5
7
10
6
7
9
7
9
5
3
1
0
-5
-4
-6
-13
-8
-11
-11
-11
-7
-14
-11
-7
-7
-3
-11
-7
-6
-11
-7
-9
-11
-9
-9
-9
-9
-4
9
15
24
30
23
1
-36
-82
-141
-209
-265
-306
-280
-220
-155
-100
-58
-27
-6
7
14
20
21
23
26
25
26
28
26
25
27
27
28
27
24
21
15
22
20
20
19
20
15
18
13
13
12
9
9
7
2
2
4
0
0
-2
-7
-3
-3
-4
-5
0
-6
-5
-3
-8
-6
-6
-5
0
-6
-9
-9
-10
-13
-12
-16
-13
-19
-18
-20
-19
-19
-21
-20
-16
-15
-11
-13
-9
-6
-3
-5
-9
-11
-13
-13
-15
-17
-16
-16
-19
-18
-22
-17
-20
-21
-17
-17
-18
-17
-16
-20
-16
-16
-21
-18
-18
-18
-16
-18
-13
-16
-15
-16
-17
-16
-15
-16
-15
-9
-8
-11
-8
-13
-14
-8
-5
-9
-10
-13
-16
-16
-16
-21
-19
-20
-20
-25
-25
-24
-24
-22
-20
-21
-20
-19
-16
-18
-20
-21
-21
-18
-25
-24
-26
-27
-29
-33
-30
-36
-37
-34
-33
-30
-25
-22
-22
-23
-21
-20
-16
-18
-18
-14
-14
-14
-17
-12
-13
-9
4
11
19
20
8
-12
-39
-88
-147
-212
-275
-305
-276
-216
-146
-94
-53
-23
-5
10
20
27
26
31
32
36
36
39
42
41
40
41
43
39
38
36
37
34
31
34
29
30
24
24
20
16
11
8
8
4
1
-3
-3
-5
0
0
-7
-6
-7
-7
-6
-2
-6
-4
-5
-7
-9
-6
-8
-11
-9
-5
-2
-2
-9
-9
-13
-15
-17
-14
-15
-16
-16
-18
-16
-15
-13
-14
-11
-13
-11
-7
-8
-8
-9
-11
-9
-8
-11
-13
-13
-13
-11
-8
-13
-16
-15
-15
-13
-15
-12
-13
-13
-13
-14
-10
-11
-13
-12
-10
-11
-12
-13
-13
-10
-14
-14
-10
-8
-11
-11
-10
-12
-13
-9
-10
-12
-12
-12
-11
-15
-14
-16
-17
-11
-8
-8
-11
-13
-13
-14
-13
-13
-13
-13
-13
-12
-13
-12
-13
-13
-14
-17
-16
-19
-18
-16
-20
-26
-29
-27
-26
-28
-21
-13
-4
2
-2
-1
-7
-10
-9
-14
-13
-8
-17
-15
-16
-17
-15
-8
-5
5
16
20
22
18
0
-28
-69
-124
-184
-250
-298
-297
-247
-183
-118
-75
-41
-13
6
16
19
24
23
22
26
32
31
31
32
28
26
24
24
27
29
25
23
24
23
25
23
25
24
23
22
27
25
22
20
19
15
11
9
8
5
2
2
1
8
12
11
10
5
5
4
1
4
-2
-1
2
0
-7
-3
-3
-1
-5
-8
-7
-7
-7
-7
-6
-6
-3
-2
3
6
3
2
3
5
8
5
7
4
6
7
5
3
3
3
4
3
4
-1
1
-1
2
3
3
5
10
9
6
3
6
4
3
4
3
10
9
22
34
37
41
38
36
31
22
16
16
12
12
5
5
4
5
0
0
2
3
1
3
3
-2
-3
-9
-7
-7
-7
-5
-6
-10
-9
-10
-8
-9
-9
-9
-8
-5
-4
-8
-9
-15
-17
-16
-13
-19
-21
-25
-27
-21
-20
-17
-8
-7
1
3
4
0
-6
-6
-9
-11
-12
-12
-15
-16
-12
-11
-6
3
17
19
17
3
-20
-55
-104
-164
-228
-283
-302
-266
-200
-139
-86
-44
-16
3
11
20
23
29
32
32
32
25
27
28
27
33
30
29
32
29
31
34
38
37
38
38
39
40
41
48
51
53
53
52
56
53
55
55
56
53
51
49
46
44
42
40
34
32
29
28
26
22
24
19
17
13
9
9
7
4
1
-2
-6
-7
-10
-13
-11
-13
-14
-15
-17
-18
-18
-15
-19
-20
-14
-16
-19
-16
-14
-15
-15
-18
-16
-13
-18
-16
-19
-16
-19
-18
-19
-17
-16
-20
-20
-20
-20
-19
-22
-24
-23
-23
-20
-24
-25
-23
-27
-27
-27
-24
-25
-24
-24
-25
-28
-27
-27
-26
-25
-25
-24
-25
-26
-22
-24
-25
-25
-22
-23
-22
-23
-25
-23
-23
-23
-25
-20
-22
-23
-23
-20
-21
-19
-18
-18
-16
-20
-20
-25
-24
-27
-26
-28
-32
-32
-33
-32
-35
-33
-26
-24
-23
-20
-19
-20
-19
-19
-22
-19
-16
-16
-18
-15
-15
-8
7
15
21
20
11
-13
-47
-95
-158
-220
-278
-300
-266
-200
-140
-87
-51
-18
-1
14
19
26
26
30
31
33
36
31
27
32
31
35
35
32
35
35
35
33
35
29
30
30
29
30
30
29
27
29
29
26
22
21
22
20
18
14
13
12
10
12
12
14
16
11
13
13
11
9
11
9
7
13
13
12
7
8
11
10
4
4
1
-1
3
6
7
4
7
8
11
13
15
16
14
14
16
13
16
15
15
16
12
10
13
16
16
12
12
13
13
14
16
11
13
10
12
11
9
9
7
9
10
6
5
5
6
8
4
3
4
2
1
4
1
2
-5
-5
-5
-3
-6
-5
-3
-4
-4
-8
-4
-7
-5
-4
-8
-9
-6
-7
-7
-9
-10
-13
-16
-19
-21
-24
-21
-23
-24
-24
-21
-21
-17
-15
-14
-13
-14
-12
-13
-8
-10
-11
-7
-9
-12
-10
-7
5
16
25
25
23
8
-23
-63
-113
-176
-242
-291
-283
-237
-175
-114
-73
-34
-12
8
20
25
27
29
33
30
32
32
33
28
28
30
27
27
25
24
26
22
23
23
20
19
21
16
15
14
12
11
11
9
8
1
0
0
0
0
-3
-3
-5
-4
-4
0
-5
0
-8
-9
-10
-4
-8
-6
-4
0
-2
-2
-3
-1
-1
0
-3
-3
3
3
1
1
5
7
12
11
12
12
11
15
15
18
20
13
17
17
15
17
15
14
9
9
10
12
18
15
14
13
12
13
11
12
13
18
17
17
19
18
20
19
19
17
15
13
16
16
14
11
12
9
10
12
11
9
12
12
9
7
6
6
9
7
8
5
2
0
-3
-5
-7
-6
-10
-15
-11
-14
-17
-14
-13
-10
-8
-8
-10
-8
-8
-9
-9
-8
-11
-11
-12
-12
-8
-6
-3
9
22
26
23
12
-9
-44
-88
-149
-216
-279
-298
-268
-199
-146
-94
-56
-24
-3
10
17
21
24
27
27
30
27
27
24
26
24
26
23
18
17
17
15
11
11
13
14
11
10
9
9
7
3
3
3
2
-5
-4
-9
-6
-6
-5
-6
-10
-13
-13
-18
-19
-25
-22
-23
-19
-18
-24
-25
-25
-18
-16
-19
-20
-19
-22
-22
-14
-14
-13
-12
-9
-7
0
2
4
8
9
11
9
7
12
16
11
7
10
11
11
8
10
9
8
7
11
14
5
4
5
6
7
7
8
12
8
7
8
7
8
7
3
5
8
9
8
10
8
6
8
7
13
12
12
9
11
11
10
11
11
10
14
13
9
8
6
3
4
-3
-9
-9
-12
-14
-14
-18
-15
-12
-8
-9
-8
-6
-1
1
-3
-3
-5
-4
-7
-10
-10
-9
-4
3
12
24
31
30
18
-8
-42
-94
-153
-217
-275
-290
-254
-187
-134
-82
-43
-19
2
19
24
25
27
27
26
23
28
26
26
27
27
25
23
21
21
20
20
15
14
13
11
12
7
8
3
2
3
1
1
-5
-5
-6
-8
-9
-13
-12
-16
-19
-20
-18
-20
-22
-21
-20
-26
-27
-27
-28
-25
-26
-25
-25
-23
-24
-23
-22
-24
-24
-23
-18
-20
-17
-13
-13
-11
-9
-7
-7
-4
-3
0
-4
-1
2
0
-5
-2
-6
-3
-7
-6
-5
-2
-5
-5
-4
-4
-3
-1
-4
1
0
1
-3
0
-3
-5
-5
-3
-4
-3
-3
-5
-2
-1
-2
-1
-2
0
-8
-4
-4
-4
-4
-5
-3
-4
-4
-5
-7
-7
-8
-7
-5
-6
-4
-4
-5
-4
-7
-7
-9
-10
-11
-16
-20
-18
-17
-19
-23
-21
-22
-19
-18
-17
-15
-13
-11
-15
-12
-11
-10
-9
-14
-18
-12
-12
-4
10
16
20
18
9
-15
-42
-83
-136
-194
-253
-278
-250
-197
-139
-87
-47
-14
8
17
24
26
27
25
29
29
27
28
32
30
30
27
26
26
27
27
24
22
20
20
22
21
17
15
14
11
11
9
7
9
7
5
3
2
-1
2
-3
-6
-4
-7
-6
-8
-9
-8
-10
-10
-13
-16
-15
-17
-17
-10
-8
-10
-13
-11
-14
-11
-10
-12
-9
-6
-7
-6
-3
1
3
4
8
6
9
6
8
8
7
12
12
10
8
6
7
8
7
7
7
8
8
5
6
3
5
8
6
4
6
5
3
4
5
5
5
8
5
5
6
6
7
5
3
3
8
3
4
5
3
-1
-3
-3
-1
0
-3
1
2
-2
0
0
4
0
3
1
2
-1
-3
-4
-8
-16
-17
-19
-21
-24
-20
-22
-20
-19
-18
-16
-15
-14
-14
-14
-12
-10
-12
-13
-12
-10
-11
-9
-9
0
14
22
22
16
-6
-34
-70
-110
-155
-202
-224
-207
-165
-115
-74
-42
-18
-4
4
12
16
20
24
26
26
24
24
26
23
23
25
24
21
20
20
17
18
18
17
16
12
14
10
11
10
8
10
8
8
7
7
5
4
3
-3
-5
-5
-4
-5
-6
-8
-11
-12
-11
-7
-6
2
5
0
1
-4
0
-3
2
1
-4
-3
-5
-6
-2
-9
-1
-4
-6
-10
-15
-14
-8
-2
3
1
-1
4
4
8
4
-1
-5
-3
4
7
8
4
1
1
2
0
2
10
13
13
11
3
8
6
4
7
12
14
13
12
8
2
-1
5
7
9
8
7
6
5
8
10
7
13
13
17
19
16
13
13
15
20
20
15
13
11
8
7
6
5
4
-3
-3
-2
-9
-7
-9
-2
-2
-3
-3
0
3
0
4
3
-2
-3
1
3
3
4
3
10
23
28
32
34
24
0
-39
-86
-144
-211
-265
-281
-243
-181
-117
-67
-27
0
15
25
29
28
34
31
38
37
36
35
33
35
31
32
29
32
33
32
29
28
23
24
21
18
16
14
10
10
3
3
-2
-4
-5
-5
-4
-12
-8
-9
-14
-15
-16
-18
-16
-18
-17
-15
-18
-18
-19
-17
-21
-23
-28
-27
-26
-24
-26
-28
-28
-30
-29
-31
-26
-31
-29
-27
-27
-26
-24
-24
-26
-27
-21
-20
-20
-17
-17
-15
-13
-12
-12
-13
-10
-12
-9
-9
-9
-8
-9
-6
-13
-7
-9
-6
-6
-6
-4
-6
-5
-1
0
-6
-4
-8
-8
-7
-8
-7
-6
-4
-7
-7
-9
-6
-5
-3
0
-3
-4
-5
-2
-5
-5
-2
0
-5
-6
-7
-9
-13
-11
-13
-14
-14
-15
-17
-19
-16
-15
-11
-8
-11
-12
-8
-6
-9
-7
-4
-7
-5
-6
-8
-4
1
11
24
30
31
26
8
-27
-61
-113
-172
-228
-258
-232
-184
-131
-84
-49
-16
2
16
22
33
37
37
36
36
34
34
36
34
34
31
31
29
27
29
26
26
23
22
21
21
19
19
14
13
17
13
17
12
8
10
8
5
4
3
-1
-2
-2
-5
-9
-5
-8
-10
-11
-10
-9
-9
-9
-10
-10
-12
-15
-12
-13
-14
-11
-11
-10
-9
-7
-4
-3
-4
-4
-2
2
4
6
3
7
4
7
8
4
5
2
5
7
5
7
3
5
7
4
3
4
5
3
8
8
1
6
5
6
1
6
8
4
6
7
6
4
5
3
5
3
4
4
2
2
-1
1
1
1
3
2
4
5
4
3
5
8
7
9
11
9
5
5
-2
-6
-7
-13
-9
-11
-12
-13
-17
-14
-14
-10
-9
-7
-8
-7
-4
-7
-11
-6
-7
-8
-6
-7
-8
0
7
15
27
35
33
19
0
-32
-75
-122
-180
-227
-241
-209
-157
-108
-69
-36
-12
5
16
22
19
22
22
27
28
30
26
27
24
26
24
24
22
22
20
21
22
20
16
15
14
12
12
12
12
11
11
7
3
6
2
1
0
-5
-6
-7
-7
-8
-11
-9
-11
-11
-12
-12
-12
-12
-12
-14
-18
-19
-15
-17
-16
-17
-17
-15
-15
-15
-11
-14
-12
-16
-14
-11
-6
-3
1
1
1
-3
2
-2
2
4
2
3
2
1
2
4
3
1
-1
-1
0
3
2
4
3
3
6
7
7
4
7
7
7
6
6
4
6
8
5
5
7
5
5
5
4
5
5
4
5
6
7
9
11
13
13
10
11
11
10
12
8
5
4
-1
-3
-3
-5
-7
-8
-8
-9
-8
-5
-3
2
-1
1
2
2
2
3
0
2
2
4
4
4
8
22
29
38
43
33
16
-14
-48
-95
-149
-202
-228
-213
-171
-119
-77
-44
-19
2
16
22
26
27
27
33
31
30
30
32
31
30
28
28
28
26
26
24
21
24
22
19
19
17
19
17
13
13
12
16
14
9
8
5
4
2
2
-5
-3
-4
-2
-5
-6
-7
-8
-10
-8
-9
-11
-9
-13
-10
-9
-10
-11
-13
-12
-10
-8
-8
-9
-10
-7
-5
-4
-5
-4
2
3
2
4
7
4
3
3
-2
1
3
8
3
4
5
5
5
5
4
4
5
3
6
5
5
5
7
3
6
8
8
8
6
6
5
9
5
8
5
7
9
5
6
3
5
3
3
7
5
8
10
11
9
7
5
7
5
3
-3
-6
-9
-11
-11
-15
-14
-15
-15
-12
-10
-7
-5
-6
-4
-4
-7
-5
-5
-6
-9
-7
-6
-6
-5
1
12
23
33
33
27
8
-20
-57
-104
-156
-209
-240
-221
-181
-131
-89
-53
-25
-8
10
15
19
24
20
24
23
23
19
20
17
16
20
20
18
18
15
16
15
12
9
8
5
3
1
2
-1
1
0
-4
-4
-3
-8
-11
-13
-14
-14
-16
-16
-17
-22
-25
-23
-23
-22
-21
-27
-27
-29
-26
-29
-30
-29
-31
-34
-33
-33
-32
-31
-32
-29
-27
-26
-27
-26
-24
-21
-20
-19
-19
-17
-16
-16
-17
-16
-16
-16
-14
-15
-13
-13
-11
-12
-14
-14
-16
-19
-19
-14
-15
-15
-15
-12
-17
-14
-17
-11
-15
-17
-16
-12
-12
-8
-15
-14
-15
-17
-18
-16
-19
-19
-19
-16
-16
-14
-17
-14
-16
-15
-15
-14
-11
-13
-12
-12
-16
-21
-21
-25
-27
-28
-30
-32
-33
-35
-34
-30
-27
-27
-23
-22
-23
-24
-25
-25
-26
-25
-25
-22
-19
-20
-16
-10
4
10
19
13
5
-17
-49
-90
-142
-191
-240
-241
-208
-159
-114
-77
-43
-25
-9
1
7
9
9
15
14
15
12
12
10
12
10
15
11
13
11
9
11
8
5
6
6
5
4
5
3
1
1
-1
-4
-5
-6
-6
-8
-6
-8
-10
-13
-14
-14
-15
-12
-15
-14
-19
-19
-18
-18
-19
-17
-16
-20
-15
-18
-21
-18
-18
-16
-17
-17
-15
-13
-9
-9
-7
-4
-5
-3
-2
-4
-3
3
2
4
2
4
4
3
3
5
5
3
4
5
4
3
6
8
7
8
7
9
10
9
10
11
12
10
11
9
12
11
13
11
13
11
7
7
7
7
8
10
7
9
8
9
9
12
12
11
16
13
17
19
17
20
16
13
8
8
4
2
2
0
-3
0
0
-1
-1
3
4
5
9
8
11
8
7
5
6
3
8
8
11
14
20
32
39
40
34
17
-5
-39
-83
-134
-185
-216
-200
-161
-111
-72
-37
-12
11
21
28
36
35
37
35
35
39
40
35
39
35
35
34
38
34
32
26
32
30
32
31
29
27
24
21
20
18
21
19
19
16
16
13
14
11
9
7
9
8
8
8
5
4
5
4
-3
0
-2
-3
-3
-6
-2
-2
-2
-4
-5
-5
-7
-3
-4
-2
0
2
5
4
2
4
5
5
6
8
8
7
9
7
13
11
12
16
13
10
10
12
12
13
13
15
13
11
13
11
10
11
11
8
9
12
13
14
14
14
8
9
10
9
9
10
8
11
8
9
7
9
8
11
8
8
12
12
14
11
16
16
14
11
7
8
6
3
1
-1
-6
-6
-6
-11
-15
-15
-15
-7
-9
-6
-3
0
-1
0
-2
-3
-2
-2
-4
-4
-3
1
8
16
26
35
32
25
1
-24
-67
-112
-167
-212
-231
-197
-148
-103
-65
-32
-9
9
17
24
28
28
30
28
25
24
27
28
29
28
24
25
25
28
24
21
23
20
16
15
19
13
15
16
12
13
11
11
9
8
8
5
4
4
-2
-4
-7
-7
-2
-7
-8
-9
-9
-6
-6
-7
-9
-11
-8
-9
-10
-11
-13
-11
-14
-11
-9
-11
-10
-12
-9
-7
-7
-8
-9
-9
-6
-5
-5
-2
-5
-4
0
1
0
3
2
3
5
2
5
3
2
3
0
2
6
1
3
4
1
4
6
3
4
2
1
4
6
5
3
3
7
2
5
4
5
2
3
3
0
1
3
3
5
6
5
6
7
7
4
7
4
1
-2
-5
-4
-8
-10
-12
-12
-18
-13
-13
-12
-11
-10
-10
-10
-9
-8
-7
-6
-7
-7
-6
-7
-7
-5
-4
4
14
24
34
35
25
8
-19
-55
-103
-153
-211
-238
-222
-174
-127
-82
-47
-24
-5
11
17
24
23
24
28
26
28
28
28
30
25
24
25
20
20
18
20
20
17
18
18
17
16
15
11
10
10
8
8
5
5
3
2
-6
-4
-6
-7
-6
-8
-11
-8
-9
-10
-12
-10
-11
-12
-13
-15
-12
-14
-15
-16
-16
-15
-14
-10
-13
-15
-13
-12
-14
-11
-8
-11
-8
-6
-4
-8
-5
-5
-6
-4
-6
-4
-4
-5
-4
-4
-2
-6
1
-1
-3
-3
-1
-1
-4
1
1
3
3
3
-1
1
2
-1
2
0
0
0
-3
-1
-1
1
1
-1
2
4
1
2
1
4
2
-1
4
3
4
5
4
3
3
4
5
3
-1
-4
-6
-4
-7
-8
-13
-15
-17
-17
-18
-14
-17
-12
-10
-11
-11
-8
-7
-7
-7
-9
-6
-5
-7
-6
-6
0
8
17
27
31
30
14
-14
-46
-91
-142
-202
-236
-231
-186
-135
-88
-55
-27
-6
7
14
19
18
21
20
24
24
21
20
19
17
20
17
17
15
15
14
15
12
7
8
9
8
6
2
0
-1
-3
-3
-7
-9
-8
-11
-9
-10
-12
-16
-15
-15
-17
-14
-16
-17
-22
-20
-20
-20
-20
-18
-21
-23
-22
-23
-23
-20
-23
-24
-22
-20
-18
-17
-16
-14
-12
-8
-6
-7
-7
-6
-9
-9
-5
-7
-5
-3
0
-3
-5
-5
-3
-3
-5
-7
-5
-6
-8
-4
-4
-4
0
0
-5
0
-4
-2
-2
0
-3
-1
-2
0
1
3
4
1
3
1
4
0
3
3
4
1
0
3
6
1
3
2
2
3
4
3
0
-3
-6
-6
-11
-12
-15
-19
-16
-19
-15
-14
-15
-14
-10
-9
-9
-6
-5
-6
-9
-7
-7
-7
-7
-7
-7
-5
4
17
28
34
33
20
-1
-33
-78
-127
-186
-237
-254
-220
-164
-111
-71
-38
-17
0
9
17
21
22
26
23
25
25
25
24
30
29
28
30
28
24
25
27
23
19
18
13
10
7
8
6
4
3
4
2
4
0
-5
-6
-11
-6
-11
-13
-15
-15
-14
-16
-17
-15
-19
-17
-14
-19
-19
-17
-16
-18
-15
-17
-16
-19
-19
-17
-18
-12
-11
-11
-9
-7
-6
-3
-4
0
-1
-2
1
3
4
8
3
4
4
6
6
3
3
4
5
8
8
8
7
8
7
8
8
8
11
8
11
6
9
9
13
12
11
10
10
11
12
12
12
11
13
13
11
8
9
10
10
10
8
7
8
8
5
9
8
11
9
11
11
9
6
3
0
-4
-4
-8
-8
-13
-12
-10
-15
-12
-11
-9
-8
-7
-8
-5
-9
-7
-9
-7
-8
-8
-8
-9
-10
-11
-9
1
8
19
21
12
-5
-32
-74
-122
-184
-245
-284
-271
-221
-159
-105
-63
-33
-11
4
11
16
19
22
21
22
22
25
20
22
20
17
18
18
15
16
13
13
7
8
5
5
6
5
5
2
1
-3
-5
-6
-7
-9
-10
-13
-13
-15
-18
-16
-17
-19
-20
-21
-24
-23
-23
-23
-23
-25
-23
-20
-19
-20
-20
-22
-23
-21
-22
-22
-21
-20
-17
-21
-18
-18
-15
-14
-8
-10
-10
-9
-7
-5
-6
-6
-9
-5
-4
-5
-6
-6
-6
-4
0
-3
-1
-5
3
-1
2
1
2
1
1
3
3
6
3
4
2
5
6
11
8
5
5
9
7
7
8
5
8
8
8
9
11
8
12
10
7
9
12
10
13
13
13
13
11
13
17
12
12
10
8
9
2
-1
-4
-6
-8
-9
-8
-10
-7
-7
-7
-5
-1
0
-3
-2
1
-3
2
0
0
-1
4
1
8
18
26
36
37
28
7
-27
-71
-127
-191
-249
-280
-256
-198
-125
-77
-36
-9
12
23
27
32
32
35
36
39
37
40
33
36
32
32
27
30
29
29
28
27
27
21
22
20
20
19
17
16
12
11
10
9
12
6
8
4
2
3
2
-1
0
-4
0
-3
-4
-6
-5
-8
-4
-5
-9
-11
-11
-10
-13
-8
-10
-14
-12
-14
-14
-14
-14
-12
-14
-13
-10
-14
-13
-14
-13
-10
-13
-5
-8
-7
-8
-8
-7
-7
-7
-8
-5
-5
-7
-4
-8
-6
-6
-7
-8
-5
-2
-5
-7
-6
-4
-3
-5
-1
-2
-2
-1
-4
-3
-3
-3
-1
-3
0
-1
1
-2
-4
-4
-3
-5
-5
-5
1
-1
-3
-2
-4
2
5
6
7
8
3
6
6
6
3
1
-1
-5
-5
-9
-8
-13
-17
-19
-19
-17
-19
-14
-13
-11
-11
-12
-10
-8
-10
-8
-10
-9
-7
-9
-11
-7
-3
10
18
28
22
13
-14
-37
-79
-127
-187
-240
-264
-243
-191
-135
-87
-48
-22
-7
7
17
20
22
24
25
27
26
28
27
28
25
27
25
28
28
27
23
29
23
26
24
23
20
20
20
17
15
15
11
11
12
8
7
6
5
6
5
2
4
5
1
3
5
4
-1
2
0
1
3
2
5
4
-2
-5
-3
-3
-5
-6
-6
-6
-10
-7
-9
-5
-9
-10
-9
-9
-4
-5
-9
-8
-9
-7
-10
-8
-9
-7
-6
-3
-4
-6
-8
-5
-9
-8
-8
-6
-7
-4
-7
-9
-8
-10
-7
1
3
3
2
4
2
-1
1
2
3
2
3
0
0
-5
-1
0
0
-3
-4
-3
-3
-4
-5
-8
-5
-2
3
3
5
3
4
8
4
4
-1
-2
-4
-2
-4
-11
-13
-16
-15
-18
-19
-15
-17
-15
-12
-9
-11
-6
-6
-7
-8
-8
-10
-9
-8
-10
-1
-3
3
10
20
25
24
10
-13
-45
-89
-140
-201
-254
-274
-239
-181
-116
-58
-21
9
21
34
47
48
51
46
39
43
46
38
36
40
37
35
41
42
41
37
29
24
28
29
28
25
21
18
19
17
17
15
13
11
16
12
11
14
12
7
5
9
6
7
10
13
13
13
18
18
11
10
13
10
11
11
16
14
15
13
9
9
6
4
3
0
0
-4
-2
-3
-3
-4
-4
-2
4
6
-1
0
-3
-7
-5
-6
-9
-6
-7
-4
-2
-5
-6
-5
-7
-5
-5
-4
-6
0
-4
0
-6
-5
-5
-8
-7
-7
-7
-7
-9
-10
-7
-9
-8
-7
-11
-13
-13
-14
-12
-15
-13
-15
-14
-15
-10
-10
-15
-16
-13
-18
-20
-27
-27
-30
-33
-37
-37
-35
-32
-28
-26
-24
-23
-21
-23
-19
-20
-19
-19
-17
-18
-18
-20
-20
-18
-18
-15
-4
4
2
-7
-25
-57
-96
-149
-207
-260
-292
-276
-218
-151
-95
-50
-25
-5
5
10
13
13
19
18
18
17
18
16
15
16
14
17
12
13
11
11
8
10
9
6
8
4
0
4
-5
0
-3
-7
-8
-5
-8
-5
-7
-12
-10
-11
-6
-11
-8
-9
-10
-13
-9
-11
-9
-6
-8
-7
-8
-5
-10
-11
-11
-13
-15
-14
-15
-16
-19
-18
-19
-17
-17
-16
-14
-17
-17
-13
-15
-15
-15
-15
-13
-11
-10
-11
-8
-7
-6
-11
-9
-10
-9
-13
-11
-7
-9
-6
-4
-6
-6
-6
-9
-8
-8
-7
-7
-6
-5
-6
-2
0
-9
-7
-7
-9
-9
-10
-11
-12
-8
-6
-8
-9
-4
-6
-5
-5
-4
-6
-9
-12
-15
-19
-26
-30
-33
-36
-41
-41
-49
-47
-49
-49
-49
-50
-52
-53
-57
-61
-65
-66
-72
-72
-74
-76
-77
-72
-64
-54
-45
-42
-50
-73
-97
-137
-180
-234
-288
-323
-314
-277
-228
-181
-144
-108
-84
-73
-60
-51
-47
-46
-45
-44
-43
-37
-38
-31
-30
-35
-28
-29
-25
-27
-22
-21
-18
-15
-14
-12
-7
-7
-7
-7
-4
-4
-7
-9
-8
-5
-4
1
-5
0
-2
5
3
5
5
11
12
11
14
16
15
18
20
19
19
22
21
22
24
23
25
28
26
25
27
30
32
34
38
40
42
43
47
47
48
52
53
55
55
56
57
56
57
59
60
58
60
59
62
59
63
65
65
65
66
67
66
65
65
64
66
65
67
67
68
70
67
65
72
69
68
72
71
71
71
72
72
75
73
72
67
63
61
57
56
49
48
50
47
47
48
50
52
51
52
53
56
51
55
53
52
47
48
46
49
51
58
70
77
86
79
67
41
4
-49
-103
-161
-210
-228
-193
-133
-72
-26
14
35
49
58
65
64
69
69
72
69
70
67
69
63
61
60
60
60
57
56
54
48
46
44
