# ASI test file format
# {"":{"device ID": "","comments": " 5min rest + 60 min gym workout ","keywords": "Belt, Gym","firmware version": "0.6.3","device": "FieldWiz + Belt","sampling rate": 250,"resolution": "[16-bit]","date": "2020-05-20","column": ["A1","ECG"],"sensor": ["RAW, ECG"],"label": ["ECG"]}}
# EndOfHeader
-40
225
909
1455
1696
1804
1849
1873
1882
1891
1896
1893
1896
1893
1893
1893
1896
1897
1896
1895
1895
1892
1889
1889
1893
1891
1891
1890
1893
1892
1893
1893
1837
1718
1580
1445
1320
1200
1097
1000
911
828
752
682
620
569
533
508
489
476
463
455
451
444
437
432
426
418
413
410
404
398
393
390
384
379
368
352
328
303
276
252
224
202
180
162
144
129
111
101
90
81
70
64
55
49
43
38
33
30
29
31
27
26
28
29
28
28
28
27
26
28
28
27
25
27
27
25
27
25
21
19
18
15
12
12
7
8
2
3
2
2
-3
-3
-5
-5
-4
-6
-5
-5
-6
-7
-9
-9
-6
-9
-8
-4
-5
-5
-7
-6
-7
-2
-5
-4
-7
-5
-5
-4
-4
-7
-5
-7
-7
-5
-6
-8
-6
-8
-7
-9
-9
-8
-10
-11
-12
-8
-11
-10
-11
-11
-11
-9
-11
-13
-10
-8
-10
-11
-10
-10
-9
-9
-10
-11
-9
-10
-13
-13
-11
-11
-9
-9
-9
-11
-10
-11
-9
-9
-12
-10
-11
-12
-11
-12
-9
-13
-11
-12
-7
-11
-13
-10
-13
-9
-13
-10
-11
-10
-9
-11
-10
-13
-13
-11
-13
-11
-13
-11
-11
-12
-13
-15
-12
-11
-15
-12
-12
-13
-10
-13
-13
-10
-13
-14
-10
-13
-13
-11
-13
-11
-10
-10
-12
-10
-11
-11
-12
-12
-11
-11
-11
-12
-11
-12
-11
-11
-10
-10
-12
-12
-12
-12
-14
-13
-11
-13
-11
-11
-13
-12
-10
-13
-12
-12
-12
-12
-12
-14
-12
-13
-13
-13
-13
-10
-13
-11
-11
-12
-13
-12
-12
-14
-13
-13
-11
-14
-9
-13
-11
-11
-10
-12
-14
-11
-12
-13
-13
-13
-12
-12
-12
-10
-11
-16
-11
-11
-11
-14
-13
-12
-12
-11
-12
-11
-13
-12
-12
-13
-13
-12
-12
-13
-13
-12
-12
-13
-15
-13
-12
-11
-15
-13
-14
-14
-13
-13
-14
-12
-11
-14
-13
-13
-13
-13
-12
-14
-11
-15
-15
-12
-12
-12
-14
-15
-15
-13
-12
-17
-13
-11
-17
-14
-13
-14
-13
-12
-11
-13
-11
-14
-12
-14
-14
-11
-14
-12
-12
-15
-14
-14
-11
-14
-17
-14
-15
-16
-13
-13
-16
-14
-12
-13
-11
-12
-14
-12
-15
-13
-13
-14
-14
-15
-11
-12
-12
-12
-11
-12
-12
-14
-15
-17
-14
-13
-13
-14
-13
-12
-12
-16
-13
-16
-13
-11
-13
-13
-14
-14
-13
-14
-13
-14
-13
-13
-15
-12
-13
-11
-12
-12
-15
-12
-13
-13
-13
-12
-12
-13
-12
-13
-13
-11
-11
-13
-11
-14
-12
-14
-10
-15
-12
-13
-14
-13
-12
-14
-10
-13
-12
-12
-15
-14
-13
-14
-12
-15
-12
-15
-13
-14
-14
-13
-14
-11
-12
-13
-14
-11
-13
-10
-11
-13
-13
-13
-13
-13
-13
-13
-12
-12
-15
-13
-13
-12
-11
-13
-14
-16
-14
-15
-13
-15
-15
-14
-12
-13
-16
-14
-12
-15
-14
-13
-14
-13
-11
-14
-11
-15
-13
-12
-17
-8
-11
-12
-12
-13
-13
-13
-13
-12
-12
-12
-14
-12
-11
-15
-10
-12
-13
-13
-13
-16
-12
-14
-12
-16
-14
-15
-13
-12
-13
-15
-14
-13
-13
-11
-15
-10
-13
-12
-13
-12
-13
-13
-15
-13
-13
-13
-11
-8
-17
-14
-13
-11
-12
-12
-11
-13
-12
-8
-15
-14
-15
-13
-13
-14
-14
-15
-13
-16
-13
-17
-13
-12
-15
-17
-17
-14
-14
-12
-12
-12
-17
-13
-13
-12
-14
-13
-17
-10
-12
-13
-16
-12
-12
-12
-12
-13
-12
-12
-14
-11
-13
-13
-14
-8
-12
-14
-11
-14
-13
-15
-14
-14
-12
-15
-12
-13
-14
-15
-12
-16
-14
-15
-13
-12
-13
-14
-15
-12
-10
-13
-13
-12
-12
-12
-13
-13
-14
-13
-14
-13
-14
-11
-14
-14
-12
-12
-14
-14
-12
-13
-14
-13
-14
-14
-12
-12
-13
-17
-13
-11
-15
-15
-14
-15
-13
-12
-12
-13
-15
-13
-12
-12
-14
-12
-14
-14
-12
-13
-12
-15
-13
-15
-12
-13
-13
-13
-14
-11
-17
-13
-14
-13
-14
-13
-13
-12
-15
-14
-12
-14
-12
-15
-13
-12
-14
-13
-13
-13
-13
-11
-16
-12
-10
-12
-13
-13
-15
-12
-14
-12
-12
-12
-14
-12
-14
-14
-13
-13
-12
-13
-12
-13
-13
-15
-13
-12
-11
-13
-13
-15
-14
-17
-12
-14
-13
-14
-14
-12
-12
-11
-13
-13
-11
-13
-9
-11
-14
-11
-10
-13
-12
-14
-12
-13
-11
-12
-13
-13
-13
-12
-11
-14
-13
-12
-11
-13
-13
-13
-14
-13
-13
-12
-13
-13
-15
-15
-15
-14
-16
-15
-15
-15
-12
-16
-11
-16
-12
-11
-12
-12
-12
-12
-13
-14
-13
-12
-14
-11
-12
-12
-11
-15
-17
-12
-12
-10
-14
-12
-15
-12
-12
-14
-14
-14
-14
-12
-15
-17
-17
-14
-15
-15
-13
-16
-14
-14
-16
-13
-12
-14
-12
-13
-14
-15
-13
-15
-12
-13
-15
-12
-13
-14
-15
-17
-15
-17
-13
-15
-12
-17
-12
-15
-15
-14
-15
-15
-17
-13
-15
-12
-13
-11
-14
-13
-16
-14
-13
-14
-12
-12
-12
-12
-13
-13
-12
-13
-11
-13
-13
-13
-14
-13
-13
-12
-13
-13
-15
-12
-11
-12
-15
-15
-15
-14
-14
-13
-13
-15
-14
-15
-15
-11
-13
-15
-12
-13
-15
-14
-15
-15
-12
-15
-17
-13
-12
-12
-13
-13
-14
-14
-11
-10
-12
-14
-12
-10
-10
-13
-13
-15
-13
-13
-16
-13
-14
-13
-14
-11
-17
-16
-13
-14
-14
-15
-13
-14
-13
-17
-16
-13
-13
-14
-14
-12
-13
-15
-12
-15
-10
-12
-14
-12
-14
-14
-11
-12
-13
-13
-13
-12
-11
-12
-13
-10
-12
-10
-15
-13
-13
-15
-15
-17
-12
-15
-15
-15
-14
-15
-17
-15
-16
-15
-13
-13
-14
-15
-15
-12
-13
-15
-12
-13
-13
-13
-15
-13
-11
-14
-12
-14
-12
-12
-14
-13
-12
-12
-12
-11
-14
-13
-14
-13
-12
-13
-16
-17
-13
-14
-13
-17
-15
-12
-15
-16
-15
-15
-17
-14
-13
-12
-14
-12
-13
-12
-15
-10
-14
-14
-14
-13
-14
-15
-12
-14
-13
-13
-12
-15
-12
-12
-12
-15
-12
-15
-13
-15
-13
-14
-13
-12
-13
-14
-16
-12
-13
-14
-14
-15
-16
-14
-12
-12
-13
-12
-14
-12
-13
-17
-12
-13
-13
-15
-12
-14
-12
-12
-12
-13
-11
-8
-13
-11
-12
-15
-15
-13
-13
-13
-15
-15
-13
-14
-14
-17
-14
-15
-14
-14
-15
-14
-15
-13
-14
-13
-14
-12
-13
-14
-13
-12
-12
-14
-13
-13
-12
-15
-13
-13
-16
-13
-12
-13
-13
-17
-13
-13
-13
-12
-13
-15
-12
-14
-12
-13
-14
-14
-13
-13
-14
-13
-15
-13
-14
-13
-17
-13
-13
-14
-15
-12
-15
-13
-15
-14
-14
-11
-13
-14
-11
-12
-12
-14
-11
-13
-12
-11
-14
-11
-13
-14
-14
-13
-13
-14
-13
-14
-16
-15
-13
-15
-16
-15
-16
-14
-16
-14
-15
-15
-14
-14
-14
-15
-13
-13
-12
-12
-14
-12
-14
-13
-13
-11
-10
-13
-10
-13
-11
-15
-14
-10
-12
-13
-13
-14
-14
-13
-12
-13
-12
-15
-14
-15
-14
-15
-12
-15
-13
-12
-15
-13
-15
-14
-14
-13
-12
-16
-15
-13
-13
-15
-12
-12
-10
-13
-13
-12
-11
-10
-13
-12
-13
-14
-14
-12
-8
-13
-13
-14
-14
-15
-16
-13
-14
-15
-14
-14
-13
-15
-15
-13
-15
-17
-12
-16
-15
-14
-13
-12
-11
-11
-13
-12
-11
-11
-13
-11
-13
-13
-13
-14
-12
-12
-11
-14
-11
-11
-12
-12
-12
-13
-13
-13
-12
-12
-12
-13
-15
-17
-14
-13
-14
-13
-11
-13
-15
-13
-12
-16
-17
-13
-12
-12
-13
-13
-14
-13
-10
-14
-11
-12
-15
-13
-14
-12
-12
-13
-13
-13
-13
-16
-13
-13
-12
-12
-15
-12
-14
-12
-14
-15
-12
-16
-14
-12
-15
-13
-17
-15
-13
-17
-13
-16
-14
-15
-16
-15
-14
-12
-13
-14
-13
-13
-12
-11
-14
-13
-7
-15
-10
-11
-14
-11
-12
-12
-12
-15
-11
-12
-15
-12
-14
-14
-12
-14
-15
-15
-15
-14
-14
-15
-14
-15
-15
-13
-12
-14
-14
-15
-15
-16
-14
-10
-12
-13
-11
-12
-11
-13
-12
-12
-13
-13
-12
-12
-12
-12
-13
-11
-13
-14
-11
-12
-13
-17
-13
-15
-14
-14
-15
-13
-15
-14
-13
-14
-16
-14
-11
-15
-12
-14
-12
-12
-12
-12
-10
-14
-13
-16
-15
-13
-12
-13
-12
-12
-10
-13
-13
-13
-11
-13
-13
-14
-12
-12
-14
-13
-13
-14
-13
-13
-15
-14
-14
-15
-12
-15
-16
-32
-58
-78
-88
-94
-99
-107
-111
-117
-118
-112
-104
-105
-100
-109
-109
-114
-117
-110
-115
-115
-109
-106
-103
-107
-117
-121
-130
-129
-128
-128
-131
-131
-129
-130
-131
-130
-132
-133
-132
-137
-130
-132
-132
-131
-133
-131
-134
-132
-132
-131
-133
-134
-133
-135
-133
-133
-131
-132
-133
-132
-132
-134
-134
-137
-135
-132
-133
-133
-137
-133
-132
-133
-134
-135
-135
-134
-135
-137
-135
-134
-131
-134
-134
-137
-135
-135
-134
-139
-134
-135
-134
-134
-137
-136
-136
-138
-139
-133
-137
-138
-132
-136
-136
-139
-130
-138
-138
-136
-136
-137
-135
-135
-138
-137
-138
-135
-133
-139
-137
-141
-138
-136
-139
-139
-139
-142
-135
-135
-140
-138
-141
-141
-143
-139
-143
-137
-137
-138
-138
-140
-138
-138
-141
-137
-142
-137
-137
-140
-137
-139
-138
-139
-142
-141
-141
-139
-139
-142
-140
-137
-140
-143
-143
-141
-141
-141
-143
-143
-138
-143
-140
-142
-141
-143
-139
-143
-136
-139
-141
-142
-140
-138
-143
-138
-144
-137
-143
-142
-143
-141
-145
-144
-145
-140
-144
-140
-140
-144
-142
-144
-144
-146
-143
-145
-141
-144
-145
-143
-142
-145
-142
-145
-141
-140
-143
-144
-144
-143
-144
-146
-143
-141
-141
-145
-147
-146
-144
-145
-143
-148
-149
-145
-149
-146
-144
-146
-147
-147
-143
-148
-144
-147
-146
-144
-145
-146
-148
-146
-145
-145
-147
-149
-149
-145
-146
-149
-145
-146
-145
-147
-148
-144
-146
-146
-146
-146
-147
-147
-147
-147
-150
-146
-148
-149
-148
-148
-150
-148
-149
-147
-147
-148
-149
-145
-117
-88
-59
-31
-17
-18
-21
-16
-11
-6
-3
2
4
5
3
6
7
4
8
5
4
8
3
3
10
2
5
6
-5
4
-6
-3
-2
-3
-2
-8
-4
-7
-8
-11
-7
-6
-10
-8
-19
-27
-27
-18
-16
-10
-10
-10
-13
-9
-10
-10
-11
-7
-9
-9
-9
-9
-11
-12
-9
-9
-10
-12
-11
-13
-11
-5
-8
-11
-13
-11
-13
-8
-14
-12
-10
-9
-10
-8
-15
-11
-14
-12
-28
-35
-31
-22
-18
-15
-12
-10
-13
-12
-8
-10
-11
-12
-11
-11
-11
-10
-10
-11
-11
-9
-9
-8
-8
-14
-7
-8
-10
-7
-13
-9
-15
-12
-12
-11
-9
-17
-11
-8
-12
-10
-8
-14
-33
-37
-34
-26
-21
-17
-17
-12
-10
-7
-6
-4
-1
1
-1
-5
-17
-20
-21
-18
-17
-12
-9
-12
-12
-9
-13
-10
-15
-10
-13
-13
-11
-8
-9
-9
-10
-11
-10
-4
-7
-9
-7
-16
-34
-40
-35
-28
-20
-18
-12
-10
-11
-10
-9
-11
-11
-7
-10
-8
-10
-8
-11
-9
-12
-9
-13
-11
-12
-12
-12
-9
-12
-10
-8
-7
-11
-5
-13
-9
-11
-10
-11
-7
-9
-6
-10
-15
-32
-40
-37
-31
-20
-16
-12
-13
-10
-10
-11
-9
-10
-6
-10
-8
-8
-9
-10
-10
-8
-6
-8
-11
-11
-7
-8
-11
-4
-13
-12
-10
-4
-6
-11
-8
-7
-11
-10
-9
-9
-9
-11
-11
-36
-49
-45
-35
-26
-18
-15
-12
-11
-12
-10
-9
-11
-9
-8
-8
-7
-4
-9
-5
1
-5
2
1
-12
-13
-14
-17
-15
-11
-5
-7
-7
-11
-10
-12
-9
-8
-5
-13
-11
-7
-9
-9
-23
-51
-51
-42
-32
-23
-16
-12
-11
-10
-9
-6
-6
-7
-8
-4
-7
-4
-5
-8
-9
-7
-4
-2
-9
-5
-11
-10
-12
-13
-8
-7
-12
-9
-12
-10
-10
-7
-8
-11
-7
-10
-9
-10
-19
-43
-61
-53
-41
-27
-21
-17
-10
-10
-8
-11
-13
-8
-7
-7
-6
-10
-9
-10
-9
-7
-7
-7
-7
-5
-10
-5
-11
-8
-11
-6
-12
-6
-10
-7
-10
-7
-10
-8
-9
-6
-9
-11
-8
-17
-51
-68
-61
-43
-33
-23
-14
-11
-10
-7
-9
-6
-6
-9
-6
-6
-5
-9
-7
-7
-4
-5
-3
2
-5
-3
-1
1
-6
-15
-12
-16
-13
-8
-9
-7
-5
-5
-11
-7
-10
-11
-9
-12
-23
-56
-67
-57
-43
-29
-19
-12
-11
-6
-7
-7
-4
-7
-6
-7
-6
-9
-8
-5
-8
-9
-12
-10
-6
-11
-10
-10
-5
-10
-6
-10
-3
-7
-7
-7
-7
-7
-6
-6
-5
-2
-4
-5
1
-5
2
-2
-2
-16
-38
-72
-104
-100
-80
-56
-39
-29
-23
-16
-13
-13
-12
-15
-11
-15
-15
-15
-15
-13
-15
-16
-20
-20
-19
-17
-17
-19
-18
-14
-12
-12
-13
-12
-6
-8
-6
-9
-8
-4
-9
-8
-4
-11
-6
-12
-31
-69
-80
-64
-47
-31
-20
-14
-11
-7
-7
-5
-5
-7
-5
-4
-5
-5
-5
-7
-5
-2
-1
2
3
0
4
-3
-13
-11
-11
-11
-7
-8
-7
-6
-7
-6
-3
-8
-7
-9
-6
-9
-8
-21
-50
-82
-83
-62
-44
-26
-20
-14
-8
-6
-5
-4
-4
-7
-1
-5
-5
-4
-4
-4
-5
-5
-5
-6
-5
-3
-8
-6
-8
-8
-5
-2
-9
-8
-4
-9
-7
-8
-8
-5
-9
-8
-3
-7
-11
-25
-64
-94
-82
-62
-43
-29
-21
-12
-9
-8
-9
-4
-5
0
-4
-4
-4
-6
-3
-3
-3
-8
-7
-7
-6
-3
-6
-6
-2
-12
-8
-6
-6
-9
-10
-13
-5
-12
-9
-6
-9
-10
-11
-10
-20
-53
-71
-60
-50
-36
-26
-24
-19
-16
-17
-14
-10
-7
-7
-7
-4
-5
-5
-4
1
0
8
5
10
13
14
9
13
10
-7
-14
-17
-14
-10
-8
-9
-7
-6
-9
-4
-7
-8
-7
-9
-15
-34
-80
-118
-112
-80
-59
-38
-23
-14
-8
-7
-9
-6
-5
0
-5
-3
-5
0
-4
-5
-3
-4
-5
-5
-1
-7
-3
-3
-7
-4
-6
-7
-7
-7
-10
-8
-8
-9
-11
-7
-10
-8
-7
-4
-14
-27
-62
-108
-145
-138
-106
-70
-46
-27
-15
-10
-8
-2
0
-3
-4
-1
2
0
1
-5
-1
-3
4
3
-2
-1
1
0
2
-5
-6
-6
-5
-8
-4
-7
-7
0
-2
-9
-6
0
-9
-13
-8
-12
-17
-41
-75
-117
-105
-76
-53
-33
-24
-14
-8
-4
-3
-6
-6
-2
-3
-5
-6
-2
0
-1
2
-2
4
4
8
12
-5
-13
-11
-10
-8
-5
-5
0
0
-7
-4
-8
-9
-4
0
-9
-5
-10
-10
-30
-72
-125
-153
-135
-99
-64
-42
-24
-12
-7
-8
-3
-2
0
-1
1
-1
1
0
-1
-3
0
-3
4
1
-2
0
2
-3
-2
-2
-5
-4
-7
-5
-3
-5
-6
-4
-4
-8
-8
-9
-6
-7
-13
-34
-57
-81
-117
-147
-122
-90
-57
-37
-22
-12
-6
-3
-3
0
-5
0
1
-3
-3
0
-1
-1
2
-3
0
3
1
-1
-3
0
-1
3
-5
0
-6
-4
0
-5
-4
-10
-5
-6
-10
-5
-12
-8
-7
-27
-68
-119
-169
-191
-173
-129
-85
-48
-27
-17
-10
-5
4
-1
3
4
6
8
7
9
6
5
0
-4
-9
-6
-1
4
6
4
-4
0
4
3
-5
-8
-3
0
-4
-6
-9
-6
-4
-6
-6
-9
-9
-9
-15
-41
-83
-135
-177
-195
-183
-137
-91
-53
-32
-18
-8
-4
3
5
6
1
4
5
7
8
5
5
4
5
7
-1
1
4
7
4
-3
4
4
3
3
-3
-3
-5
-4
-3
-6
-4
-5
-5
-9
-4
-7
-7
-10
-30
-72
-118
-164
-192
-189
-145
-98
-59
-33
-20
-10
-3
6
6
4
3
5
5
5
8
3
3
4
6
5
3
1
1
7
-1
1
1
-1
3
3
-9
-3
1
-1
-4
-6
-5
-5
1
-8
-11
-7
-6
0
-8
-36
-67
-73
-57
-36
-23
-19
-34
-70
-77
-61
-42
-22
-13
-11
-10
-5
2
-1
0
-4
0
0
1
1
-5
-3
-1
3
2
-9
-2
-2
4
-1
-5
-3
-6
0
-8
-8
-8
-6
0
-3
-10
-8
-5
-7
-7
-10
-7
2
7
-7
-53
-100
-137
-156
-185
-191
-150
-101
-60
-37
-25
-10
-2
4
6
3
2
9
7
5
4
4
6
7
6
3
6
10
9
2
0
3
8
5
2
0
-5
1
-2
-3
-9
-9
-4
2
-7
-7
-7
-5
-11
-42
-90
-97
-73
-48
-36
-26
-17
-6
-5
-4
-9
-4
0
-3
-3
-7
-7
-5
0
-3
-4
-5
3
-2
-7
-10
-5
-2
-5
-4
-3
-7
1
4
0
-4
-5
-6
-8
-19
-22
-17
-8
-15
-44
-97
-140
-165
-182
-200
-194
-145
-93
-59
-34
-19
-9
2
5
5
5
7
11
11
7
4
3
7
8
6
4
7
6
10
3
3
-2
7
4
-2
-3
-5
-4
-3
-5
-6
-6
-3
-2
-5
-8
-3
-2
-12
-38
-87
-121
-148
-171
-200
-191
-142
-94
-56
-32
-21
-7
4
3
4
6
5
8
8
6
6
6
9
7
6
5
4
7
8
8
4
2
1
4
-3
-6
-3
-2
-1
-5
-2
-7
-5
-2
-3
-6
-4
-5
-11
-30
-64
-100
-128
-152
-180
-208
-223
-230
-232
-202
-149
-92
-50
-23
-7
3
7
13
12
14
15
16
20
21
22
20
22
20
18
7
6
8
6
9
8
8
6
7
3
3
2
0
3
0
-1
-3
-3
-4
-3
-2
-3
-3
-8
-19
-35
-56
-85
-104
-126
-148
-176
-202
-220
-230
-234
-222
-171
-110
-62
-32
-15
2
12
13
17
20
18
18
19
19
15
19
17
20
15
16
19
16
15
16
11
9
9
10
6
6
4
4
2
5
4
-2
2
0
1
-4
-2
-2
-6
-16
-29
-52
-72
-93
-119
-142
-168
-192
-212
-226
-230
-237
-233
-184
-124
-73
-38
-11
4
11
14
18
20
21
20
24
20
21
22
24
22
19
21
19
19
18
18
18
11
11
11
7
7
6
5
8
5
8
3
3
4
3
6
6
-8
-24
-56
-94
-135
-160
-186
-213
-222
-235
-238
-240
-239
-242
-239
-193
-128
-71
-35
-11
9
16
22
25
27
28
27
30
27
30
28
27
26
27
26
25
27
24
19
16
20
16
10
10
6
9
7
3
5
5
0
1
4
0
-5
0
-1
-3
-10
-20
-35
-48
-68
-82
-104
-125
-143
-163
-180
-201
-221
-232
-239
-243
-245
-246
-245
-211
-145
-86
-39
-12
9
17
23
29
30
34
32
31
31
32
32
32
30
31
30
29
29
29
28
28
22
20
14
12
12
13
13
7
3
8
5
5
1
1
0
-2
2
-4
-14
-26
-42
-63
-80
-106
-134
-154
-157
-155
-140
-109
-69
-18
33
51
-6
-54
-58
-38
-23
-13
-5
6
8
6
9
12
10
12
11
11
10
13
12
12
9
7
8
9
6
10
10
6
4
6
2
-1
3
-2
2
-4
-5
2
-3
-2
-4
-5
-6
-3
-5
-15
-29
-43
-66
-83
-109
-120
-139
-156
-172
-187
-199
-215
-226
-239
-244
-251
-253
-249
-253
-253
-252
-201
-134
-73
-22
-2
15
27
33
38
38
37
40
39
37
39
36
37
38
37
36
31
36
36
28
32
24
21
24
18
16
13
14
8
12
7
7
4
3
3
1
-2
2
1
-3
-13
-26
-42
-60
-78
-88
-111
-127
-143
-156
-171
-185
-202
-214
-230
-245
-253
-256
-255
-254
-256
-249
-216
-166
-109
-56
-50
-59
-39
-17
7
22
33
39
42
43
44
42
43
45
43
42
44
39
43
42
38
36
35
38
35
32
28
30
23
25
24
19
11
13
11
7
7
8
7
7
5
5
2
2
-4
-8
-20
-30
-45
-62
-76
-90
-105
-119
-129
-142
-152
-160
-173
-185
-200
-208
-218
-229
-243
-248
-256
-259
-258
-256
-258
-261
-263
-260
-253
-191
-117
-54
-11
17
35
45
52
55
55
57
56
57
56
55
55
53
52
53
52
51
49
50
45
41
37
35
33
28
29
22
20
21
15
16
11
9
10
10
6
3
5
4
-7
-13
-22
-35
-50
-61
-72
-86
-98
-110
-119
-135
-144
-157
-173
-190
-207
-215
-216
-205
-185
-154
-118
-68
-24
-9
-43
-113
-187
-234
-249
-257
-262
-265
-264
-207
-128
-65
-16
16
32
45
47
52
54
56
56
57
55
53
54
51
51
53
48
48
46
48
44
44
39
33
30
28
23
21
19
17
14
13
14
6
9
8
3
7
5
1
-4
-4
-16
-29
-35
-47
-59
-68
-80
-87
-94
-104
-112
-124
-135
-143
-150
-159
-169
-177
-182
-189
-197
-203
-206
-212
-221
-221
-223
-227
-228
-236
-230
-234
-238
-241
-241
-241
-242
-243
-246
-249
-248
-245
-250
-251
-246
-246
-251
-248
-252
-249
-249
-246
-246
-244
-242
-239
-234
-232
-231
-225
-224
-226
-221
-225
-225
-224
-224
-223
-223
-218
-219
-216
-216
-216
-212
-217
-217
-213
-214
-221
-224
-222
-213
-193
-167
-130
-76
-19
44
84
69
9
-63
-127
-162
-190
-202
-204
-203
-200
-199
-195
-190
-186
-188
-183
-180
-176
-172
-170
-168
-166
-161
-156
-154
-150
-146
-140
-139
-132
-131
-129
-124
-119
-112
-114
-104
-102
-100
-101
-96
-95
-91
-93
-91
-88
-89
-91
-87
-88
-85
-84
-85
-82
-83
-82
-80
-78
-71
-68
-62
-62
-63
-56
-56
-52
-50
-48
-43
-40
-43
-40
-41
-36
-37
-36
-34
-34
-28
-26
-29
-26
-24
-27
-24
-26
-21
-22
-20
-20
-19
-19
-20
-18
-15
-15
-13
-12
-14
-10
-10
-9
-7
-10
-10
-6
-6
-5
0
1
1
4
3
8
10
11
12
18
22
25
28
28
32
27
25
24
24
24
21
23
26
25
25
26
28
27
32
25
25
17
14
13
17
35
57
93
140
191
251
293
287
230
156
94
56
32
14
13
9
10
12
9
13
13
13
19
18
18
21
20
24
25
28
28
30
36
35
40
41
40
43
46
46
49
50
52
54
58
57
56
57
61
59
58
58
60
55
55
55
52
51
50
50
49
48
48
50
51
52
56
58
60
60
63
60
59
59
57
60
58
59
61
58
59
57
58
57
56
55
54
54
51
51
49
48
45
48
48
46
47
48
48
48
46
45
44
50
46
45
45
45
43
44
46
47
46
43
43
42
43
41
42
39
39
40
39
39
44
41
43
42
45
47
52
56
55
55
56
54
51
50
52
47
47
47
47
46
44
46
48
45
46
48
43
37
27
28
28
37
56
91
122
171
230
282
299
263
192
118
72
35
21
7
9
4
8
10
11
12
16
14
16
14
16
14
18
19
18
23
26
25
25
29
27
31
37
35
37
34
37
40
38
40
44
42
44
42
44
41
41
45
40
40
39
35
39
33
32
34
30
29
32
31
32
36
35
37
36
38
40
36
38
40
41
38
35
36
40
38
38
35
35
31
36
33
32
31
33
30
29
30
29
26
23
25
28
24
25
23
21
24
22
22
21
21
20
20
20
21
19
18
19
19
22
19
19
19
18
19
15
15
11
13
13
14
15
20
19
21
25
25
27
34
32
30
30
24
24
21
20
18
19
20
15
18
19
16
16
17
15
11
6
2
5
13
29
50
83
130
170
221
251
235
180
112
56
18
-5
-14
-17
-16
-18
-16
-17
-17
-15
-17
-13
-17
-13
-13
-13
-9
-12
-9
-9
-6
-6
-9
-9
-5
-5
0
2
3
2
5
10
10
9
9
13
11
14
12
10
11
9
9
7
9
4
3
2
1
-2
-3
-4
-5
0
3
1
6
3
3
5
7
7
7
7
8
10
7
8
4
9
8
3
6
5
4
6
5
3
3
1
1
-2
0
-3
-4
-4
-6
-9
-4
-7
-4
-7
-6
-6
-4
-6
-5
-8
-7
-8
-8
-7
-8
0
-4
-6
-7
-6
-6
-11
-10
-10
-11
-13
-13
-15
-13
-12
-9
-6
-7
-4
1
2
3
9
9
9
7
7
1
0
-4
-2
-5
-3
-4
-5
-9
-8
-8
-8
-10
-13
-15
-19
-21
-16
-3
18
48
94
135
187
225
237
185
115
51
10
-16
-29
-37
-38
-41
-40
-39
-36
-35
-38
-36
-38
-37
-35
-40
-35
-36
-32
-34
-31
-28
-25
-24
-25
-20
-20
-19
-15
-17
-15
-11
-10
-9
-10
-9
-8
-11
-11
-12
-13
-11
-17
-16
-16
-19
-19
-22
-20
-18
-22
-20
-16
-17
-17
-12
-12
-11
-11
-8
-7
-7
-6
-6
-9
-6
-13
-11
-10
-10
-13
-16
-14
-14
-13
-14
-16
-14
-17
-15
-16
-18
-18
-18
-21
-21
-19
-22
-21
-21
-24
-23
-26
-22
-24
-25
-25
-23
-23
-21
-18
-22
-23
-23
-24
-21
-25
-21
-23
-22
-21
-24
-23
-24
-23
-24
-24
-25
-28
-25
-25
-25
-23
-22
-19
-18
-14
-13
-11
-11
-7
-7
-6
-11
-13
-14
-16
-17
-18
-16
-17
-17
-13
-17
-19
-16
-18
-16
-28
-29
-32
-31
-19
4
31
68
115
169
220
236
192
120
54
7
-25
-36
-47
-49
-47
-46
-48
-46
-45
-44
-44
-44
-42
-42
-41
-39
-36
-34
-34
-33
-30
-32
-30
-28
-28
-26
-22
-18
-20
-17
-19
-14
-12
-12
-13
-12
-10
-10
-15
-14
-13
-15
-15
-18
-14
-19
-16
-16
-14
-15
-12
-10
-10
-8
-5
-1
-3
-4
-3
-1
4
4
-1
-1
-4
-3
0
-5
-4
-9
-9
-9
-12
-12
-17
-13
-13
-15
-13
-15
-15
-16
-19
-16
-17
-16
-17
-15
-15
-17
-17
-14
-14
-14
-16
-14
-14
-18
-20
-17
-17
-17
-19
-20
-19
-18
-17
-17
-16
-15
-19
-17
-17
-17
-17
-16
-18
-20
-19
-16
-16
-15
-14
-9
-5
-3
-4
1
5
3
6
3
-1
-4
-7
-6
-6
-8
-4
-3
-4
-5
-4
-6
-9
-9
-13
-16
-17
-16
4
20
51
94
139
192
227
217
163
92
35
0
-23
-35
-37
-41
-41
-37
-33
-32
-29
-26
-25
-27
-26
-22
-25
-18
-20
-16
-14
-21
-15
-12
-11
-8
-6
-7
-6
-3
-5
-3
1
0
2
4
4
8
3
3
5
1
1
5
-2
-4
-3
1
-1
-1
1
3
5
4
5
6
9
7
7
5
11
7
7
8
9
4
6
5
5
3
2
0
-3
-3
0
-5
-2
-5
-5
-5
-4
-5
-5
-3
-4
-8
-5
-5
-4
-5
-6
-6
-4
-7
-9
-10
-8
-9
-9
-10
-11
-9
-11
-9
-9
-11
-10
-9
-9
-8
-10
-10
-11
-11
-12
-15
-13
-15
-12
-10
-9
-9
-6
-5
2
3
4
10
7
4
6
1
1
2
-5
-3
0
-4
-5
-5
-4
-8
-4
-4
-5
-6
-13
-13
-10
0
17
45
80
123
173
223
239
201
131
67
17
-12
-27
-35
-37
-37
-38
-35
-37
-33
-34
-36
-36
-37
-35
-31
-30
-29
-31
-31
-27
-27
-25
-25
-23
-22
-18
-17
-20
-17
-14
-12
-12
-12
-9
-12
-8
-11
-12
-12
-10
-10
-12
-15
-14
-14
-18
-18
-16
-21
-18
-20
-19
-19
-12
-16
-13
-13
-13
-12
-9
-9
-6
-7
-6
-9
-10
-12
-9
-11
-12
-11
-13
-16
-15
-12
-13
-17
-17
-19
-20
-16
-17
-19
-18
-19
-19
-22
-20
-24
-23
-20
-21
-18
-22
-21
-20
-20
-22
-24
-23
-23
-24
-23
-22
-20
-25
-23
-21
-22
-20
-25
-24
-25
-25
-25
-23
-18
-24
-19
-20
-19
-19
-17
-10
-10
-7
-2
0
1
-2
-7
-7
-12
-11
-13
-15
-11
-14
-18
-16
-15
-14
-15
-17
-19
-22
-25
-27
-22
-6
16
47
85
132
185
228
231
176
102
38
-8
-33
-46
-48
-47
-47
-45
-46
-47
-46
-41
-41
-38
-41
-41
-38
-35
-36
-34
-34
-34
-29
-27
-27
-26
-27
-25
-23
-24
-21
-21
-16
-16
-15
-17
-15
-10
-12
-11
-13
-9
-12
-13
-12
-11
-14
-15
-12
-17
-17
-15
-12
-13
-13
-9
-8
-4
-7
-7
-4
-4
-4
-6
-5
-8
-6
-7
-6
-9
-9
-7
-11
-12
-14
-12
-14
-15
-15
-15
-18
-14
-20
-20
-17
-21
-19
-18
-20
-19
-19
-17
-19
-22
-17
-21
-18
-21
-19
-20
-21
-22
-21
-23
-20
-23
-19
-18
-16
-16
-17
-14
-16
-17
-19
-18
-21
-19
-18
-21
-20
-18
-15
-14
-11
-8
-9
-5
-6
0
-4
-5
-6
-10
-13
-13
-11
-12
-13
-13
-13
-12
-14
-14
-13
-12
-16
-16
-23
-22
-16
6
30
61
103
154
207
238
212
138
68
7
-22
-36
-44
-49
-49
-44
-42
-38
-40
-38
-39
-33
-35
-33
-32
-30
-32
-28
-28
-24
-28
-26
-22
-20
-21
-17
-18
-14
-14
-12
-11
-10
-6
-5
-6
-3
0
-7
-3
-5
0
-6
-6
-7
-5
-5
-5
-5
-3
-2
-5
1
4
5
4
5
4
7
5
2
1
2
-4
-4
-4
-8
-8
-7
-10
-10
-10
-13
-14
-12
-12
-13
-13
-15
-17
-16
-11
-17
-14
-16
-18
-15
-19
-16
-17
-12
-18
-12
-16
-17
-12
-15
-14
-10
-11
-15
-14
-14
-15
-14
-16
-12
-17
-14
-14
-13
-12
-17
-17
-17
-16
-17
-16
-15
-14
-16
-13
-11
-11
-8
2
0
2
2
4
-1
-2
-6
-4
-5
-8
-9
-8
-8
-9
-6
-7
-6
-10
-6
-12
-16
-18
-15
-8
12
29
64
96
144
189
219
201
145
72
28
-8
-28
-36
-37
-38
-38
-34
-33
-34
-33
-29
-32
-28
-28
-26
-26
-24
-22
-20
-21
-21
-19
-15
-17
-13
-14
-11
-9
-7
-3
-4
-3
2
2
1
2
4
3
1
4
4
1
2
-5
-4
1
-6
-7
-8
-11
-6
-7
-6
-7
-5
-4
-3
-5
0
-4
0
-4
-5
-3
-4
-7
-4
-9
-7
-9
-8
-8
-9
-13
-12
-10
-11
-14
-12
-13
-14
-14
-15
-15
-16
-14
-13
-13
-12
-15
-12
-14
-15
-15
-13
-14
-15
-16
-13
-15
-13
-14
-12
-13
-13
-13
-15
-18
-18
-19
-18
-18
-21
-20
-20
-21
-17
-19
-14
-10
-9
-4
-3
2
4
0
2
-7
0
-6
-5
-9
-8
-9
-10
-8
-9
-11
-7
-6
-7
-11
-15
-16
-18
-10
4
25
54
92
136
185
226
233
184
114
49
3
-21
-32
-38
-40
-38
-40
-35
-38
-39
-36
-37
-36
-32
-33
-30
-34
-28
-28
-27
-27
-28
-26
-23
-21
-22
-16
-17
-19
-17
-9
-6
-5
3
6
9
10
12
15
16
18
14
12
13
12
10
11
8
7
8
8
7
8
12
14
15
19
19
17
18
18
17
20
19
19
18
21
18
17
19
16
16
14
12
11
9
9
11
12
6
7
5
3
4
3
3
-1
3
-3
-4
-5
-3
-4
-6
-9
-7
-6
-5
-9
-8
-9
-10
-10
-12
-9
-10
-11
-13
-9
-10
-12
-15
-18
-20
-18
-20
-22
-20
-18
-19
-19
-16
-15
-15
-11
-8
-6
-4
-1
-1
-4
-8
-11
-14
-16
-16
-18
-20
-19
-17
-19
-23
-19
-14
-23
-22
-28
-30
-26
-18
-4
21
55
93
144
194
233
213
154
81
22
-19
-39
-47
-53
-54
-53
-52
-55
-55
-53
-51
-52
-51
-49
-48
-48
-45
-45
-38
-45
-38
-40
-41
-37
-37
-34
-32
-32
-32
-28
-32
-28
-29
-29
-28
-26
-26
-25
-26
-28
-27
-31
-27
-28
-32
-33
-33
-33
-37
-35
-35
-33
-29
-28
-27
-25
-26
-27
-25
-22
-23
-20
-21
-19
-19
-21
-22
-25
-25
-25
-24
-28
-27
-27
-29
-31
-32
-31
-28
-32
-32
-33
-33
-33
-37
-37
-31
-32
-34
-32
-34
-37
-34
-35
-34
-31
-33
-35
-35
-37
-38
-36
-36
-35
-35
-32
-34
-35
-32
-30
-31
-30
-33
-31
-31
-31
-32
-33
-35
-34
-34
-30
-30
-30
-27
-26
-31
-25
-24
-19
-16
-17
-13
-13
-15
-12
-21
-19
-21
-22
-25
-23
-22
-20
-23
-23
-23
-21
-24
-25
-27
-31
-33
-29
-13
2
30
64
107
159
212
228
184
108
41
-7
-33
-45
-50
-54
-53
-51
-48
-45
-44
-41
-40
-41
-39
-36
-34
-37
-34
-28
-31
-25
-24
-22
-22
-20
-18
-18
-16
-18
-16
-13
-13
-12
-7
-8
-7
-3
-5
-4
-8
-9
-6
-7
-7
-5
-7
-7
-9
-9
-9
-3
-3
-3
-5
0
4
5
7
7
6
7
8
6
5
-1
-1
-4
-5
-4
-10
-5
-6
-7
-8
-9
-8
-7
-12
-10
-12
-12
-13
-11
-10
-11
-9
-11
-11
-13
-13
-10
-12
-13
-14
-16
-11
-13
-13
-15
-13
-13
-15
-11
-14
-12
-14
-13
-13
-11
-10
-14
-12
-12
-13
-13
-13
-13
-13
-12
-12
-13
-13
-17
-15
-15
-15
-16
-14
-17
-11
-12
-8
-7
-3
0
3
6
4
9
3
-1
-2
-3
-4
-10
-8
-6
-7
-6
-12
-7
-9
-7
-10
-11
-15
-20
-18
-8
6
31
59
98
145
194
221
195
134
70
18
-20
-31
-37
-39
-38
-37
-33
-32
-31
-31
-31
-29
-26
-28
-29
-25
-25
-24
-23
-24
-21
-19
-19
-14
-12
-17
-11
-12
-11
-11
-9
-6
-5
-5
-4
-3
1
-5
-3
-3
-3
-4
-6
-2
-6
-8
-9
-11
-11
-11
-10
-11
-11
-9
-5
-11
-7
-8
-2
-5
-4
-2
-2
-5
-5
-2
-5
-5
-10
-8
-7
-11
-12
-9
-10
-9
-11
-8
-8
-8
-10
-12
-12
-10
-11
-13
-12
-13
-16
-13
-15
-11
-12
-15
-12
-13
-15
-14
-15
-12
-12
-12
-13
-12
-12
-10
-12
-13
-11
-14
-13
-10
-12
-12
-8
-11
-11
-11
-11
-11
-13
-13
-16
-14
-17
-16
-20
-17
-17
-15
-12
-14
-13
-9
-4
4
5
4
9
9
8
7
5
-1
-5
-4
-7
-7
-6
-7
-6
-4
-7
-6
-9
-11
-12
-15
-18
-15
-4
13
40
74
118
172
218
237
195
129
64
12
-17
-32
-35
-40
-38
-41
-41
-38
-39
-39
-38
-37
-39
-37
-32
-32
-34
-34
-32
-29
-29
-28
-25
-25
-25
-22
-22
-21
-16
-15
-16
-12
-13
-10
-8
-11
-10
-10
-13
-12
-14
-14
-12
-15
-17
-16
-21
-19
-25
-19
-20
-19
-19
-20
-19
-19
-15
-18
-15
-15
-17
-13
-14
-15
-12
-12
-14
-12
-13
-17
-17
-15
-16
-17
-16
-19
-17
-18
-16
-20
-18
-18
-20
-19
-19
-19
-19
-18
-19
-17
-18
-19
-20
-20
-20
-23
-24
-19
-23
-21
-19
-21
-23
-24
-24
-22
-19
-22
-20
-22
-21
-22
-21
-23
-23
-21
-23
-23
-21
-15
-14
-16
-20
-20
-21
-20
-20
-18
-19
-20
-16
-21
-21
-20
-20
-21
-19
-21
-15
-17
-17
-12
-11
-11
-9
-4
0
-3
-4
-6
-8
-8
-12
-11
-11
-11
-13
-13
-10
-13
-13
-11
-15
-17
-18
-26
-23
-19
-3
17
47
84
129
181
225
219
159
87
30
-10
-33
-43
-43
-47
-45
-42
-40
-43
-41
-37
-36
-38
-39
-34
-34
-35
-31
-29
-30
-26
-28
-24
-27
-22
-22
-20
-17
-16
-13
-13
-12
-14
-9
-8
-7
-4
0
-4
-5
-5
-2
-5
-11
-8
-7
-9
-7
-7
-10
-9
-7
-5
-9
-6
-5
1
0
-4
2
0
-6
-7
-4
-4
-8
-9
-11
-11
-7
-10
-11
-13
-15
-12
-13
-15
-15
-12
-15
-13
-13
-13
-13
-14
-15
-11
-16
-13
-17
-16
-16
-19
-19
-19
-16
-16
-18
-17
-19
-20
-19
-18
-18
-20
-22
-16
-19
-16
-19
-16
-15
-18
-15
-17
-15
-17
-16
-14
-16
-15
-12
-15
-12
-11
-14
-12
-15
-15
-14
-17
-15
-14
-12
-16
-13
-17
-15
-11
-12
-9
-7
-2
0
1
2
4
1
2
0
-4
-4
-5
-4
-6
-4
-7
-7
-2
-6
-5
-6
-8
-9
-12
-17
-15
-13
1
25
51
88
128
178
212
204
150
84
27
-8
-27
-37
-38
-37
-37
-35
-35
-31
-31
-32
-29
-24
-27
-24
-24
-21
-23
-22
-19
-19
-18
-16
-12
-17
-15
-14
-10
-9
-9
-7
-8
-5
-5
-4
-2
-1
-3
3
-3
-3
-2
-1
-5
-4
-7
-6
-6
-11
-11
-8
-7
-8
-8
-9
-10
-4
-6
-9
-4
-2
-4
-4
-2
-6
-3
-7
-9
-9
-10
-6
-11
-13
-13
-12
-11
-8
-11
-10
-8
-8
-11
-7
-10
-11
-11
-11
-12
-11
-10
-13
-12
-14
-13
-13
-15
-16
-12
-14
-17
-16
-14
-14
-15
-16
-14
-18
-19
-17
-13
-14
-15
-15
-17
-15
-15
-12
-17
-14
-12
-12
-11
-14
-10
-13
-7
-11
-11
-17
-13
-12
-13
-13
-14
-12
-12
-8
-9
-4
-2
-4
1
2
3
8
9
9
6
2
-1
-2
-6
-7
-5
-5
-5
-4
-4
-4
-4
-9
-9
-12
-14
-18
-12
0
13
37
72
117
160
202
216
179
113
55
10
-17
-28
-35
-36
-36
-34
-34
-34
-32
-31
-34
-30
-29
-27
-29
-26
-24
-25
-21
-20
-19
-18
-17
-16
-16
-13
-11
-8
-8
-10
-8
-5
-5
-4
-3
-2
-2
0
-2
1
1
-4
-10
-8
-9
-9
-9
-10
-19
-16
-14
-15
-16
-17
-16
-15
-18
-12
-10
-11
-7
-10
-9
-11
-11
-11
-14
-13
-15
-16
-14
-16
-15
-14
-17
-16
-16
-15
-15
-13
-16
-19
-15
-14
-15
-18
-17
-16
-16
-17
-17
-19
-16
-19
-20
-17
-21
-18
-21
-21
-16
-18
-21
-21
-20
-21
-20
-19
-20
-21
-20
-18
-18
-18
-16
-17
-18
-19
-19
-18
-17
-19
-19
-16
-18
-20
-17
-18
-21
-20
-20
-21
-20
-23
-20
-19
-21
-16
-16
-18
-13
-11
-9
-7
-4
0
4
1
2
-6
-5
-7
-13
-12
-13
-11
-13
-12
-12
-12
-11
-11
-11
-15
-17
-18
-23
-19
-9
10
35
72
109
159
207
225
185
116
50
3
-24
-40
-47
-46
-49
-46
-45
-46
-46
-42
-39
-41
-40
-40
-38
-36
-34
-33
-33
-29
-30
-29
-28
-30
-28
-24
-22
-23
-22
-19
-17
-16
-17
-18
-16
-14
-12
-13
-13
-11
-8
-13
-14
-15
-14
-14
-17
-18
-20
-17
-16
-13
-19
-8
-12
-9
-9
-9
-8
-9
-9
-8
-10
-10
-13
-10
-15
-13
-16
-15
-16
-19
-19
-18
-20
-21
-17
-20
-17
-22
-22
-17
-21
-19
-21
-19
-19
-21
-19
-19
-19
-20
-23
-25
-20
-20
-22
-20
-22
-23
-25
-22
-22
-22
-22
-18
-20
-25
-21
-20
-23
-21
-24
-23
-25
-25
-25
-23
-24
-24
-24
-24
-22
-22
-18
-19
-17
-21
-21
-24
-22
-24
-23
-21
-23
-20
-19
-20
-18
-19
-18
-17
-13
-9
-9
-7
-8
-12
-13
-15
-21
-16
-18
-16
-19
-20
-18
-21
-20
-17
-21
-18
-19
-23
-26
-27
-16
-3
20
50
80
115
158
183
151
101
37
-10
-36
-49
-53
-53
-52
-47
-42
-41
-41
-36
-37
-37
-32
-34
-32
-27
-30
-29
-26
-23
-24
-23
-20
-21
-16
-19
-13
-14
-14
-9
-9
-8
-7
-6
-4
-7
-4
-5
0
-2
-4
-5
-3
-6
-4
-4
-4
-6
-6
-3
-2
-1
2
2
4
2
2
2
-1
-1
-4
-4
-5
-6
-13
-11
-12
-14
-13
-13
-15
-17
-18
-17
-15
-16
-17
-18
-16
-16
-17
-14
-14
-16
-18
-16
-18
-21
-19
-18
-16
-18
-19
-18
-17
-17
-18
-22
-21
-20
-20
-18
-19
-20
-16
-15
-19
-15
-15
-15
-17
-15
-16
-17
-12
-16
-15
-16
-13
-15
-13
-12
-11
-17
-13
-14
-11
-16
-12
-10
-13
-11
-11
-7
-5
2
6
8
6
6
5
1
1
2
-4
1
-3
-2
-6
-5
-7
-6
-9
-9
-5
-8
-7
-11
-5
1
12
24
51
76
108
144
162
150
106
49
6
-21
-35
-38
-36
-35
-28
-24
-23
-22
-23
-21
-22
-21
-16
-18
-16
-16
-13
-14
-10
-12
-9
-9
-6
-2
-4
-3
-2
0
-1
3
-1
5
9
4
8
11
10
10
13
11
12
11
11
7
10
5
7
5
7
6
4
6
4
3
2
7
5
8
4
6
3
2
0
1
1
-5
-5
-5
-9
-8
-6
-7
-7
-8
-7
-7
-9
-6
-8
-10
-9
-8
-10
-10
-9
-8
-9
-8
-10
-9
-12
-12
-10
-14
-10
-11
-11
-11
-14
-13
-16
-13
-15
-13
-16
-10
-16
-9
-11
-10
-16
-13
-12
-10
-13
-14
-15
-13
-15
-10
-15
-15
-15
-13
-12
-11
-7
-4
1
0
1
4
4
-4
-5
-5
-7
-9
-9
-9
-9
-9
-9
-8
-8
-8
-7
-4
-8
-4
-10
-7
4
18
39
67
96
132
169
186
157
105
46
1
-29
-33
-38
-37
-32
-32
-32
-28
-29
-31
-26
-28
-28
-27
-27
-25
-26
-24
-21
-21
-18
-21
-20
-18
-18
-14
-11
-9
-10
-12
-8
-10
-10
-6
-4
-5
0
-4
-2
-5
-4
-4
-4
-6
-6
-8
-12
-11
-9
-13
-16
-12
-17
-16
-12
-14
-14
-14
-12
-14
-10
-10
-12
-11
-17
-15
-16
-18
-18
-16
-16
-17
-19
-23
-17
-22
-20
-19
-18
-21
-20
-22
-23
-22
-20
-23
-22
-22
-23
-21
-23
-23
-25
-24
-27
-28
-28
-26
-31
-28
-31
-29
-32
-30
-30
-28
-27
-29
-28
-30
-28
-30
-28
-29
-28
-32
-32
-31
-32
-34
-31
-29
-30
-29
-30
-30
-25
-23
-16
-19
-14
-17
-11
-16
-17
-19
-19
-21
-26
-27
-23
-24
-23
-27
-24
-24
-25
-26
-24
-24
-24
-28
-23
-8
11
33
57
83
116
143
146
99
41
-9
-39
-53
-59
-61
-57
-53
-46
-46
-46
-41
-40
-39
-37
-41
-38
-37
-38
-37
-37
-33
-31
-32
-31
-26
-23
-23
-22
-18
-19
-18
-23
-20
-19
-17
-10
-10
-13
-9
-11
-13
-8
-9
-12
-13
-15
-16
-12
-13
-17
-15
-14
-12
-17
-12
-10
-13
-14
-15
-15
-14
-17
-16
-17
-18
-21
-20
-23
-23
-27
-24
-27
-27
-27
-24
-27
-31
-24
-24
-27
-25
-22
-25
-23
-26
-24
-25
-27
-29
-27
-30
-27
-33
-28
-30
-29
-31
-26
-28
-27
-28
-31
-32
-29
-31
-29
-27
-27
-27
-27
-22
-26
-22
-27
-24
-25
-20
-21
-22
-25
-20
-18
-21
-16
-17
-15
-14
-12
-8
-8
-2
-10
-6
-9
-13
-12
-15
-16
-18
-18
-20
-19
-20
-18
-20
-21
-21
-19
-16
-19
-18
-18
-9
3
20
42
67
90
115
137
129
87
29
-16
-45
-58
-64
-57
-52
-43
-41
-37
-34
-33
-30
-27
-28
-26
-24
-24
-20
-21
-20
-17
-14
-11
-13
-15
-10
-8
-6
-8
-3
-3
0
0
6
4
4
7
9
13
12
18
16
19
23
22
19
24
27
28
25
28
29
29
28
27
26
22
20
16
10
8
1
-5
-4
-10
-17
-17
-25
-23
-23
-26
-23
-26
-28
-29
-31
-29
-26
-25
-26
-21
-23
-20
-23
-22
-22
-23
-20
-21
-21
-21
-23
-22
-25
-22
-24
-23
-27
-23
-26
-22
-25
-24
-24
-20
-20
-24
-21
-20
-22
-23
-23
-23
-20
-25
-19
-20
-15
-18
-13
-14
-6
-6
-4
-4
-2
-4
-9
-11
-11
-11
-12
-12
-10
-12
-13
-12
-10
-8
-8
-6
-8
-6
-7
-5
3
12
27
43
65
89
110
134
146
123
67
13
-25
-47
-57
-55
-51
-45
-38
-35
-24
-21
-20
-17
-14
-15
-14
-9
-11
-5
-6
-5
0
-3
-1
3
8
4
8
5
13
17
18
17
20
22
22
26
28
25
29
30
36
36
40
43
42
46
52
51
53
55
57
55
58
56
55
49
46
41
35
30
27
21
11
8
4
0
-5
-9
-9
-13
-16
-14
-17
-15
-15
-17
-14
-17
-15
-15
-12
-10
-12
-13
-11
-10
-12
-8
-13
-10
-14
-12
-13
-14
-13
-12
-15
-17
-12
-12
-14
-12
-13
-11
-14
-16
-13
-13
-13
-10
-16
-12
-17
-12
-16
-13
-12
-13
-13
-13
-14
-11
-12
-10
-6
-6
-1
-1
2
5
6
4
3
1
-1
-4
-7
-7
-8
-6
-9
-6
-7
-5
-4
-6
-8
-10
-14
-8
-10
-3
9
20
36
47
62
83
96
84
47
11
-20
-40
-43
-40
-39
-32
-26
-16
-14
-10
-10
-7
-9
-7
-5
-5
-5
-2
0
-1
1
0
2
-1
2
4
4
4
8
5
5
8
12
13
14
14
12
15
13
15
18
13
16
16
17
14
13
15
12
14
11
13
11
13
11
11
11
12
10
9
7
6
5
0
-1
0
-5
-7
-5
-6
-7
-7
-6
-8
-7
-10
-9
-11
-9
-8
-7
-9
-9
-9
-6
-6
-6
-10
-8
-4
-6
-9
-11
-7
-6
-10
-8
-9
-13
-14
-15
-12
-13
-14
-12
-13
-14
-15
-14
-16
-16
-18
-15
-17
-20
-19
-15
-16
-21
-16
-18
-20
-15
-17
-15
-17
-13
-11
-9
-2
-7
0
-2
-3
-9
-5
-7
-11
-12
-12
-14
-15
-15
-14
-17
-13
-13
-12
-15
-14
-14
-13
-13
-6
6
15
26
38
51
57
62
41
4
-26
-43
-50
-46
-38
-31
-28
-25
-20
-16
-15
-15
-13
-13
-12
-12
-11
-11
-6
-9
-6
-8
-5
-5
-5
-1
-4
-3
-1
-1
0
3
-1
4
3
5
7
7
9
8
9
6
5
9
4
6
4
3
1
0
0
1
-1
0
-6
-2
-5
-3
-5
-5
-8
-3
-8
-6
-9
-8
-9
-8
-9
-10
-10
-13
-11
-11
-13
-9
-13
-15
-13
-11
-12
-10
-12
-14
-11
-14
-13
-15
-16
-13
-15
-12
-15
-19
-17
-18
-18
-16
-18
-18
-15
-14
-14
-15
-17
-14
-15
-14
-17
-17
-17
-16
-16
-15
-16
-17
-17
-13
-12
-12
-13
-13
-13
-11
-8
-12
-15
-12
-14
-13
-12
-15
-14
-13
-16
-13
-15
-13
-14
-10
-8
-12
-13
-7
-8
-5
0
1
-3
-1
-1
1
-7
-8
-10
-9
-13
-10
-13
-11
-13
-11
-11
-12
-11
-8
-13
-12
-11
-5
10
19
25
35
52
65
67
46
8
-24
-41
-49
-47
-44
-33
-27
-22
-22
-16
-16
-17
-14
-10
-10
-13
-9
-9
-13
-10
-11
-9
-4
-7
-7
-7
-6
-8
-8
-8
-5
-5
-1
-2
-4
-2
0
1
1
2
2
5
5
1
3
2
4
0
4
2
3
2
4
6
6
3
6
1
6
2
-1
-3
0
-5
-5
-7
-8
-12
-8
-10
-13
-14
-9
-15
-16
-15
-16
-18
-15
-17
-15
-14
-16
-15
-15
-16
-14
-15
-14
-19
-15
-17
-14
-18
-18
-18
-21
-15
-17
-14
-16
-20
-16
-17
-19
-18
-18
-17
-16
-15
-19
-17
-17
-16
-19
-19
-16
-20
-17
-18
-18
-18
-16
-16
-13
-14
-15
-15
-13
-14
-15
-13
-14
-13
-15
-11
-11
-9
-11
-12
-13
-10
-12
-11
-11
-12
-14
-11
-13
-15
-13
-11
-5
-4
-4
1
2
4
5
5
6
3
2
-5
-6
-6
-6
-8
-9
-12
-12
-11
-12
-10
-10
-13
-11
-13
-9
-9
0
11
20
31
42
60
81
88
67
28
-15
-36
-44
-46
-41
-33
-27
-20
-15
-15
-12
-15
-14
-12
-12
-11
-11
-11
-9
-6
-6
-5
-4
-7
-3
-4
-2
-4
-5
0
1
2
3
4
3
5
5
3
5
5
4
6
5
7
3
8
8
7
11
9
15
12
15
17
17
16
17
15
10
10
8
7
2
1
-3
-4
-7
-10
-10
-12
-13
-15
-14
-16
-12
-12
-16
-16
-14
-12
-12
-15
-15
-15
-16
-11
-14
-14
-14
-12
-17
-15
-17
-17
-16
-13
-14
-15
-16
-16
-20
-17
-20
-20
-16
-21
-19
-18
-19
-15
-16
-18
-18
-20
-19
-18
-16
-19
-18
-18
-17
-17
-18
-16
-14
-18
-21
-20
-17
-15
-16
-19
-16
-17
-16
-16
-19
-16
-17
-17
-16
-19
-16
-20
-19
-17
-17
-13
-6
-6
1
0
2
7
3
3
2
1
-2
-7
-7
-12
-13
-13
-14
-14
-17
-15
-14
-16
-17
-14
-13
-13
-7
5
17
34
49
64
85
99
85
49
2
-33
-49
-49
-47
-38
-34
-30
-25
-21
-18
-16
-13
-16
-13
-18
-12
-14
-10
-9
-8
-9
-9
-9
-6
0
-2
-3
2
1
0
-1
4
3
8
9
9
8
12
14
12
13
12
16
12
15
17
15
18
18
16
17
17
20
17
16
18
15
14
12
12
7
2
0
-6
-7
-13
-10
-16
-16
-18
-21
-18
-21
-19
-21
-20
-21
-17
-21
-21
-22
-21
-21
-19
-22
-22
-22
-21
-20
-21
-25
-26
-22
-22
-22
-24
-26
-27
-25
-24
-26
-25
-29
-27
-27
-28
-27
-27
-29
-28
-26
-28
-24
-23
-24
-27
-24
-23
-23
-23
-23
-24
-22
-23
-22
-20
-20
-20
-22
-20
-22
-21
-23
-22
-20
-18
-22
-19
-18
-19
-18
-20
-20
-14
-14
-12
-7
-8
-5
-5
3
0
1
0
-3
-8
-8
-13
-10
-15
-11
-14
-13
-17
-16
-18
-14
-13
-12
-12
-13
-11
4
21
37
60
83
109
132
128
85
34
-11
-33
-42
-47
-43
-35
-34
-31
-27
-27
-27
-25
-25
-21
-23
-20
-20
-17
-15
-14
-18
-14
-15
-11
-10
-9
-6
-9
-6
-4
3
1
2
4
6
6
8
9
9
12
9
10
10
11
13
11
11
15
14
14
16
20
18
20
18
21
19
17
14
15
8
8
7
4
1
2
-5
-5
-9
-10
-10
-12
-14
-11
-15
-13
-13
-16
-13
-16
-15
-14
-13
-15
-13
-13
-10
-11
-12
-12
-13
-14
-13
-12
-14
-16
-16
-18
-15
-17
-16
-17
-17
-15
-18
-15
-18
-15
-17
-15
-17
-16
-17
-17
-15
-18
-17
-18
-17
-16
-15
-17
-14
-17
-13
-16
-14
-16
-19
-19
-15
-19
-19
-18
-19
-15
-14
-14
-13
-7
-5
0
0
4
5
6
5
0
-1
-3
-6
-8
-9
-10
-13
-14
-14
-15
-11
-12
-11
-12
-12
-13
-13
-7
13
33
59
88
121
158
180
150
100
35
-6
-33
-43
-48
-47
-42
-39
-34
-34
-32
-35
-30
-28
-30
-29
-28
-25
-25
-23
-21
-19
-17
-20
-16
-17
-10
-11
-13
-12
-7
-9
-7
-7
-4
-6
-5
-2
0
-3
1
2
3
5
3
5
4
1
2
6
5
6
5
8
7
8
7
9
6
3
5
2
1
-4
-7
-7
-11
-14
-14
-17
-20
-19
-20
-18
-22
-20
-21
-22
-22
-26
-25
-26
-23
-23
-20
-25
-24
-23
-23
-20
-23
-23
-24
-22
-25
-25
-23
-22
-22
-21
-23
-23
-22
-21
-23
-20
-20
-20
-22
-20
-20
-22
-22
-21
-23
-21
-23
-24
-21
-16
-20
-18
-20
-20
-18
-24
-25
-23
-23
-19
-20
-16
-13
-14
-10
-6
-5
0
1
2
0
-3
-9
-8
-12
-12
-16
-15
-16
-19
-17
-18
-18
-18
-14
-17
-19
-21
-18
-11
9
27
57
85
119
160
185
168
112
49
1
-33
-44
-50
-49
-49
-45
-46
-43
-41
-41
-42
-38
-35
-41
-35
-35
-33
-28
-28
-30
-27
-26
-24
-23
-21
-20
-18
-15
-15
-13
-12
-11
-9
-7
-6
-5
-1
-3
0
-2
0
1
2
-1
4
-2
-4
-4
-5
0
-6
-5
-4
-2
-5
-2
-5
-5
-9
-6
-10
-10
-15
-12
-15
-18
-17
-18
-17
-25
-22
-22
-20
-21
-22
-23
-18
-21
-20
-18
-20
-18
-21
-22
-18
-22
-20
-19
-19
-20
-21
-24
-19
-20
-21
-20
-19
-19
-21
-23
-25
-24
-22
-25
-24
-20
-22
-21
-21
-22
-19
-21
-20
-19
-17
-19
-18
-21
-18
-16
-18
-20
-19
-19
-22
-21
-21
-17
-17
-11
-11
-9
-3
-4
1
0
3
3
0
-7
-9
-11
-12
-13
-10
-14
-14
-12
-11
-16
-15
-15
-18
-17
-21
-17
-2
16
38
70
103
141
181
203
165
102
31
-13
-34
-46
-52
-48
-50
-44
-44
-38
-41
-39
-40
-40
-36
-32
-32
-31
-29
-26
-24
-25
-23
-22
-19
-16
-12
-12
-12
-7
-6
-6
-5
-5
-2
-1
4
4
5
8
6
8
6
6
3
7
6
7
4
8
5
7
8
8
5
5
7
8
8
8
6
2
2
-1
-4
-6
-4
-13
-9
-11
-17
-17
-14
-16
-16
-18
-18
-17
-17
-16
-15
-13
-14
-16
-15
-15
-13
-15
-16
-15
-12
-13
-13
-12
-16
-17
-16
-15
-16
-16
-16
-16
-16
-17
-15
-17
-16
-15
-15
-16
-18
-15
-18
-17
-19
-17
-16
-17
-13
-15
-16
-17
-14
-18
-17
-18
-19
-19
-16
-14
-15
-12
-7
-7
-5
-1
5
3
8
3
7
2
0
-2
-8
-6
-8
-12
-8
-11
-14
-11
-12
-12
-11
-12
-13
-12
-8
8
24
49
79
112
153
187
185
138
77
25
-11
-30
-38
-38
-36
-37
-32
-34
-29
-31
-32
-32
-27
-28
-29
-29
-28
-26
-26
-25
-21
-19
-20
-18
-16
-18
-15
-17
-11
-11
-7
-7
-7
1
0
0
2
-1
5
3
4
4
2
1
0
1
1
0
-3
2
-5
-4
-4
-4
-4
-3
-2
1
0
-6
-4
-6
-6
-6
-9
-10
-12
-15
-12
-17
-15
-14
-14
-14
-16
-19
-16
-20
-15
-16
-17
-18
-17
-13
-15
-16
-15
-13
-17
-16
-16
-13
-16
-20
-16
-21
-19
-18
-20
-20
-18
-19
-20
-19
-20
-20
-19
-19
-19
-16
-21
-20
-17
-19
-19
-18
-16
-14
-16
-14
-15
-15
-13
-17
-14
-13
-12
-13
-13
-13
-14
-14
-12
-12
-15
-15
-13
-8
-6
-1
2
4
5
7
7
6
3
0
-5
-6
-7
-6
-7
-9
-5
-10
-9
-11
-6
-9
-11
-12
-13
-13
-1
16
42
69
101
151
182
193
153
91
34
-3
-28
-37
-40
-38
-36
-37
-37
-35
-33
-35
-32
-32
-30
-30
-27
-29
-26
-23
-20
-21
-22
-20
-17
-20
-18
-12
-15
-13
-10
-10
-8
-7
-4
-4
-4
4
1
1
6
4
5
2
2
2
2
0
-2
-3
-4
-8
-5
-7
-8
-8
-7
-7
-7
-6
-5
-4
-8
-7
-7
-7
-9
-10
-14
-13
-15
-15
-18
-17
-18
-16
-19
-15
-14
-15
-13
-15
-17
-14
-15
-16
-17
-13
-18
-14
-16
-17
-12
-19
-16
-19
-18
-20
-17
-18
-21
-20
-19
-22
-22
-25
-21
-21
-20
-21
-23
-20
-21
-22
-25
-22
-23
-23
-21
-20
-21
-22
-21
-20
-21
-19
-21
-22
-22
-19
-20
-18
-21
-19
-21
-18
-16
-19
-16
-18
-16
-19
-16
-17
-18
-16
-16
-22
-15
-18
-12
-11
-10
-9
-3
-3
1
3
3
-1
-3
0
-8
-8
-10
-12
-14
-12
-14
-11
-14
-12
-11
-13
-12
-17
-20
-24
-23
-17
0
20
47
84
123
169
199
189
139
71
20
-19
-34
-42
-42
-45
-45
-40
-40
-38
-37
-36
-34
-36
-34
-30
-31
-28
-28
-29
-25
-27
-23
-24
-20
-24
-22
-21
-19
-15
-16
-14
-12
-11
-8
-6
-7
-4
-4
0
2
1
-1
1
-2
2
-4
-2
-4
-6
-8
-7
-8
-8
-7
-8
-5
-8
-7
-2
-7
-4
-3
-3
-4
-6
-8
-10
-9
-10
-13
-11
-17
-12
-15
-12
-13
-15
-13
-12
-12
-15
-11
-16
-13
-14
-15
-14
-10
-13
-14
-14
-11
-13
-16
-14
-14
-17
-16
-13
-14
-13
-15
-14
-17
-17
-15
-14
-15
-13
-17
-14
-17
-13
-9
-13
-11
-17
-12
-15
-15
-16
-14
-12
-13
-13
-12
-12
-12
-9
-10
-11
-10
-10
-10
-10
-11
-9
-11
-11
-13
-14
-11
-12
-13
-12
-14
-13
-8
-12
-14
-8
-8
-10
-8
-8
-3
-3
3
5
3
-1
3
2
-4
-4
-7
-6
-4
-7
-6
-5
-6
-8
-7
-10
-7
-11
-17
-17
-16
-5
13
36
60
93
134
172
191
158
104
44
-2
-23
-36
-40
-40
-39
-36
-36
-32
-35
-31
-35
-33
-28
-26
-26
-26
-28
-25
-24
-23
-23
-19
-21
-15
-19
-18
-19
-14
-9
-12
-10
-6
-7
-6
-5
1
-2
1
3
4
2
3
4
4
3
4
0
0
0
-7
-4
-4
-8
-8
-6
-10
-9
-9
-7
-4
-11
-6
-10
-8
-13
-11
-13
-13
-14
-15
-17
-16
-17
-17
-19
-15
-19
-18
-16
-17
-15
-17
-17
-13
-17
-18
-12
-15
-15
-17
-14
-13
-13
-12
-16
-15
-17
-19
-15
-16
-15
-16
-17
-19
-18
-17
-17
-19
-20
-22
-17
-17
-20
-20
-19
-18
-14
-19
-19
-14
-16
-17
-14
-16
-15
-14
-12
-13
-13
-9
-14
-14
-14
-12
-15
-15
-10
-12
-14
-13
-16
-11
-15
-14
-14
-12
-17
-17
-14
-15
-11
-13
-14
-15
-11
-13
-9
-9
-10
-3
-3
-3
2
6
6
3
3
1
0
-3
-6
-5
-9
-7
-5
-7
-1
-5
-3
-6
-8
-11
-16
-15
-8
5
23
51
84
122
167
195
186
133
75
24
-13
-27
-34
-39
-39
-37
-36
-37
-33
-34
-33
-34
-33
-30
-29
-31
-28
-24
-25
-22
-22
-19
-19
-18
-14
-16
-14
-15
-8
-11
-9
-8
-4
-4
-3
1
-1
-1
4
2
6
4
5
2
6
-3
3
-5
-5
-4
-5
-5
-8
-9
-9
-7
-11
-9
-7
-8
-9
-9
-10
-11
-10
-14
-11
-14
-14
-15
-12
-15
-19
-17
-16
-15
-17
-12
-15
-16
-18
-17
-17
-15
-16
-17
-13
-19
-19
-18
-17
-19
-18
-19
-18
-20
-19
-21
-24
-22
-17
-19
-18
-20
-18
-18
-17
-16
-19
-18
-18
-18
-18
-21
-18
-18
-21
-18
-19
-18
-19
-19
-20
-16
-15
-17
-17
-15
-19
-14
-17
-14
-17
-16
-13
-13
-12
-14
-17
-13
-15
-13
-16
-13
-14
-12
-11
-13
-13
-16
-15
-17
-14
-14
-14
-12
-16
-14
-14
-14
-12
-12
-8
-5
-2
-1
0
5
2
2
-2
-5
-7
-9
-10
-10
-8
-9
-10
-9
-7
-8
-6
-11
-15
-20
-19
-20
-9
9
33
62
100
148
193
215
182
119
52
10
-16
-33
-41
-38
-42
-41
-38
-37
-37
-38
-35
-34
-35
-34
-32
-29
-29
-26
-29
-23
-24
-22
-23
-22
-18
-19
-16
-17
-17
-11
-10
-13
-10
-9
-6
-4
-6
-4
-1
-3
1
-3
-3
0
-2
-3
-5
-6
-9
-6
-7
-4
-6
-10
-6
-9
-5
-6
-4
-6
-6
-7
-9
-9
-13
-11
-15
-13
-15
-17
-16
-17
-15
-14
-18
-16
-19
-19
-18
-21
-16
-16
-16
-18
-17
-16
-13
-15
-16
-14
-14
-14
-12
-16
-17
-16
-15
-17
-17
-17
-18
-19
-18
-19
-18
-17
-20
-20
-21
-19
-19
-19
-20
-21
-19
-22
-20
-17
-17
-19
-19
-15
-18
-19
-17
-13
-17
-14
-14
-14
-15
-13
-13
-15
-13
-12
-13
-13
-10
-13
-10
-10
-11
-13
-11
-10
-13
-14
-11
-13
-13
-10
-13
-11
-13
-9
-11
-8
-7
-9
-3
0
6
1
6
4
3
-1
-5
-5
-5
-5
-5
-5
-9
-7
-7
-9
-11
-9
-12
-15
-20
-19
-15
0
16
49
76
117
156
195
188
137
77
26
-11
-29
-36
-38
-37
-34
-33
-31
-31
-30
-31
-26
-28
-29
-25
-26
-25
-24
-22
-23
-22
-19
-16
-16
-16
-13
-13
-11
-10
-7
-11
-10
-7
0
-4
-3
-3
0
3
4
3
6
6
7
7
8
9
7
7
4
6
7
4
0
1
3
4
4
-3
0
-2
-2
1
-1
-4
0
-7
-12
-8
-12
-15
-15
-15
-15
-17
-15
-16
-15
-17
-17
-16
-14
-19
-18
-15
-16
-16
-17
-16
-18
-17
-19
-18
-19
-20
-21
-20
-17
-20
-21
-19
-19
-21
-22
-23
-21
-23
-21
-21
-19
-18
-24
-23
-21
-21
-20
-23
-17
-22
-17
-18
-16
-15
-14
-19
-16
-21
-18
-17
-16
-18
-19
-17
-14
-18
-19
-21
-16
-17
-20
-21
-21
-20
-17
-21
-22
-21
-16
-21
-18
-13
-15
-14
-10
-8
-4
-2
0
-1
4
3
1
-1
-5
-4
-8
-11
-11
-8
-12
-8
-13
-12
-10
-10
-10
-17
-13
-15
-13
-2
16
38
68
101
141
182
190
154
97
39
1
-18
-33
-33
-33
-34
-35
-31
-33
-30
-29
-26
-29
-27
-27
-23
-24
-24
-25
-27
-21
-19
-18
-17
-17
-15
-15
-14
-12
-9
-8
-8
-7
-6
-2
-2
-2
0
4
3
7
5
6
6
6
5
3
5
4
2
-1
1
-1
2
-2
1
3
0
0
0
-2
-5
-6
-6
-7
-8
-13
-9
-12
-13
-15
-16
-16
-14
-15
-18
-18
-18
-12
-13
-17
-15
-14
-13
-12
-13
-15
-16
-13
-14
-12
-16
-12
-14
-13
-12
-16
-16
-13
-17
-17
-17
-15
-16
-12
-16
-14
-13
-19
-16
-15
-12
-17
-14
-14
-16
-17
-17
-17
-17
-15
-17
-16
-16
-18
-17
-17
-14
-16
-18
-18
-17
-17
-15
-15
-14
-17
-21
-21
-19
-21
-17
-21
-19
-16
-14
-15
-13
-13
-13
-6
-5
-5
-1
0
4
-1
-3
-7
-6
-10
-13
-13
-11
-11
-15
-12
-8
-8
-11
-9
-12
-14
-15
-9
3
24
47
77
111
155
190
188
139
78
24
-10
-29
-37
-39
-38
-37
-36
-37
-34
-33
-34
-33
-27
-32
-30
-30
-30
-26
-27
-26
-24
-24
-22
-21
-21
-16
-17
-15
-12
-14
-11
-8
-8
-6
-7
-6
1
-2
1
1
3
3
1
3
4
2
3
0
0
0
-3
-5
1
-2
-2
1
-2
-2
1
-5
-6
-6
-9
-12
-15
-15
-14
-17
-16
-20
-21
-22
-21
-24
-25
-22
-24
-21
-21
-22
-23
-22
-20
-19
-20
-22
-23
-22
-22
-21
-20
-20
-19
-23
-21
-23
-17
-25
-21
-19
-19
-21
-21
-19
-21
-25
-20
-22
-22
-20
-21
-21
-20
-21
-17
-19
-17
-21
-21
-14
-17
-14
-20
-16
-17
-16
-18
-17
-16
-20
-14
-20
-18
-17
-20
-18
-17
-15
-19
-15
-14
-12
-12
-8
-5
-3
0
1
-2
-6
-8
-11
-12
-12
-12
-15
-13
-12
-12
-13
-12
-11
-9
-13
-14
-18
-17
-8
2
24
49
86
119
167
204
195
140
76
21
-15
-37
-43
-46
-44
-41
-36
-36
-34
-32
-34
-33
-31
-35
-32
-31
-29
-26
-27
-28
-24
-25
-21
-20
-20
-19
-17
-18
-16
-12
-12
-13
-10
-8
-4
-4
-4
-1
-5
0
-1
-1
-2
-1
2
0
2
2
4
3
2
2
2
6
3
4
4
6
5
5
1
0
2
-4
-4
-8
-11
-12
-16
-17
-17
-18
-16
-17
-19
-21
-19
-22
-18
-20
-20
-22
-20
-19
-22
-21
-23
-19
-21
-22
-23
-25
-24
-23
-21
-24
-20
-24
-25
-23
-24
-24
-25
-26
-25
-25
-23
-25
-21
-23
-22
-25
-20
-25
-23
-23
-24
-23
-22
-23
-22
-22
-23
-22
-20
-21
-25
-22
-25
-20
-25
-20
-16
-14
-12
-11
-6
-5
-4
-4
-7
-8
-10
-13
-13
-13
-12
-14
-12
-11
-13
-13
-12
-10
-14
-10
-17
-12
-9
9
26
50
78
114
154
188
191
149
86
26
-15
-33
-45
-45
-45
-41
-40
-35
-36
-32
-30
-31
-30
-30
-30
-26
-23
-27
-22
-21
-18
-19
-21
-14
-9
-10
-12
-8
-10
-3
0
1
-1
7
4
6
9
8
11
11
11
13
11
10
14
18
14
16
12
16
16
15
19
19
20
20
19
16
14
11
12
10
5
0
-2
-7
-7
-12
-13
-15
-14
-16
-17
-15
-18
-16
-15
-17
-15
-16
-18
-17
-14
-17
-14
-17
-17
-17
-18
-20
-17
-15
-19
-17
-17
-18
-18
-18
-18
-16
-18
-20
-16
-22
-19
-21
-20
-21
-19
-22
-21
-20
-19
-22
-21
-18
-23
-22
-23
-23
-19
-21
-25
-21
-23
-21
-23
-19
-18
-17
-12
-13
-6
-6
-7
-4
-6
-7
-9
-13
-14
-12
-14
-15
-15
-15
-14
-15
-14
-13
-11
-17
-16
-16
-15
-9
8
26
49
84
119
158
191
183
131
73
17
-16
-34
-39
-44
-43
-38
-35
-32
-32
-37
-30
-32
-30
-26
-28
-26
-26
-24
-25
-24
-25
-23
-21
-19
-18
-13
-13
-10
-11
-11
-7
-4
-5
0
-3
1
4
2
5
3
5
5
6
5
4
4
3
3
2
-1
4
-3
0
1
-3
0
-3
0
-3
0
-4
-4
-11
-11
-10
-11
-13
-17
-16
-14
-16
-14
-12
-19
-17
-19
-17
-15
-16
-16
-15
-17
-16
-17
-14
-15
-18
-18
-16
-17
-18
-16
-17
-18
-16
-16
-19
-16
-17
-20
-20
-20
-20
-22
-16
-21
-18
-25
-20
-21
-21
-19
-18
-19
-19
-14
-19
-20
-21
-18
-17
-21
-22
-20
-21
-16
-19
-18
-13
-11
-6
-4
-5
-1
1
-5
-7
-9
-8
-15
-13
-12
-12
-13
-11
-7
-11
-13
-14
-13
-10
-17
-19
-15
-11
6
25
53
88
121
164
196
183
130
64
16
-19
-36
-41
-40
-42
-39
-36
-36
-35
-36
-35
-36
-33
-34
-32
-29
-26
-29
-24
-23
-25
-22
-18
-20
-20
-16
-17
-17
-12
-11
-12
-13
-11
-9
-11
-4
-2
-4
0
-2
1
0
0
3
4
-2
-2
0
-3
-5
-8
-7
-7
0
-5
-9
-5
-4
-3
-7
-7
-4
-9
-6
-8
-10
-12
-12
-12
-17
-16
-14
-18
-18
-21
-18
-18
-18
-17
-19
-16
-17
-18
-19
-12
-19
-16
-14
-17
-15
-18
-19
-18
-17
-20
-20
-20
-21
-20
-20
-19
-17
-20
-20
-23
-20
-23
-19
-19
-19
-25
-21
-22
-20
-22
-21
-20
-19
-22
-21
-25
-22
-21
-16
-20
-20
-19
-23
-20
-23
-19
-19
-14
-15
-9
-8
-5
-3
-5
-5
-5
-8
-10
-14
-14
-16
-14
-13
-14
-14
-13
-14
-14
-15
-16
-17
-21
-18
-15
-3
19
49
80
119
163
207
208
161
91
33
-7
-30
-43
-45
-47
-44
-42
-40
-39
-40
-40
-36
-33
-37
-36
-34
-29
-27
-28
-29
-28
-21
-18
-20
-20
-17
-17
-18
-13
-12
-15
-9
-10
-7
-8
-5
0
-2
-3
0
0
1
0
5
5
-2
-5
-5
-4
-7
-6
-3
-6
-7
-2
0
0
-1
-1
3
3
1
-4
-5
-4
-8
-10
-10
-14
-13
-16
-17
-18
-19
-18
-18
-20
-21
-19
-17
-19
-17
-16
-18
-15
-18
-21
-19
-21
-18
-16
-22
-19
-19
-22
-21
-20
-23
-20
-18
-20
-16
-20
-16
-18
-20
-20
-19
-22
-19
-21
-20
-19
-23
-21
-22
-20
-20
-21
-22
-20
-18
-20
-19
-17
-19
-16
-21
-17
-16
-18
-21
-21
-14
-16
-17
-14
-16
-11
-9
-9
-1
-2
-1
-1
0
-3
-5
-7
-8
-10
-10
-13
-12
-12
-10
-13
-15
-11
-15
-15
-17
-19
-18
-10
6
28
54
90
130
174
206
189
128
62
14
-17
-35
-43
-41
-41
-40
-36
-39
-32
-31
-30
-32
-30
-29
-28
-28
-25
-24
-22
-22
-20
-16
-16
-13
-12
-8
-13
-10
-9
-6
-5
-2
-5
-5
0
2
2
4
5
6
5
6
4
6
7
6
7
6
6
6
4
4
6
6
5
6
4
5
3
6
2
3
0
0
-1
-6
-4
-8
-12
-12
-14
-12
-17
-15
-18
-16
-14
-17
-13
-16
-14
-15
-15
-12
-14
-14
-13
-12
-13
-11
-11
-14
-17
-17
-14
-17
-15
-17
-17
-17
-19
-15
-20
-18
-15
-17
-18
-18
-19
-19
-18
-17
-17
-19
-14
-16
-15
-16
-17
-16
-17
-19
-18
-16
-15
-16
-14
-14
-14
-13
-15
-14
-12
-15
-14
-14
-14
-14
-15
-14
-16
-15
-13
-16
-15
-15
-12
-14
-11
-10
-7
-7
-5
2
4
2
-3
-6
-7
-8
-14
-15
-15
-17
-14
-15
-11
-17
-15
-13
-14
-18
-21
-27
-22
-17
-6
14
41
75
120
166
191
175
126
69
16
-16
-35
-42
-44
-44
-40
-45
-40
-41
-43
-39
-42
-40
-41
-41
-38
-39
-32
-34
-28
-29
-26
-22
-23
-23
-22
-23
-21
-21
-20
-18
-14
-12
-13
-7
-7
-9
-4
0
2
-3
-5
2
0
0
-3
-1
-3
-6
-5
-7
-6
-7
-9
-4
-5
-4
-8
-7
-3
-9
-7
-8
-2
-6
-7
-5
-9
-9
-10
-11
-12
-6
-6
-9
-7
-10
-9
-9
-6
-9
-12
-9
-13
-8
-8
-9
-10
-8
-9
-13
-11
-10
-10
-8
-11
-8
-9
-9
-8
-10
-10
-7
-12
-12
-13
-13
-10
-11
-9
-12
-16
-13
-15
-12
-13
-12
-15
-12
-13
-11
-14
-12
-11
-10
-11
-10
-10
-13
-11
-10
-11
-7
-8
-13
-10
-8
-12
-9
-9
-9
-10
-9
-9
-6
-9
-8
-4
-9
-9
-9
-10
-10
-9
-8
-13
-8
-10
-10
-9
-5
-7
-7
-1
0
2
6
10
10
9
8
4
-1
-4
-5
-3
-3
-4
-4
-7
-7
-5
-8
-8
-12
-11
-14
-19
-19
-11
2
24
50
87
133
181
216
207
154
92
37
2
-23
-31
-38
-40
-42
-41
-37
-41
-38
-39
-38
-36
-35
-37
-34
-34
-31
-32
-31
-26
-29
-29
-26
-26
-27
-23
-20
-20
-22
-16
-16
-15
-18
-13
-12
-11
-8
-9
-6
-9
-9
-10
-4
-6
-8
-11
-13
-12
-13
-13
-18
-16
-19
-17
-13
-17
-18
-17
-16
-19
-20
-17
-15
-13
-16
-19
-17
-21
-20
-21
-25
-22
-22
-22
-22
-20
-20
-23
-23
-20
-24
-26
-24
-24
-24
-23
-22
-24
-22
-24
-22
-23
-20
-20
-22
-25
-24
-20
-25
-22
-25
-25
-24
-27
-26
-25
-23
-26
-26
-25
-24
-24
-25
-27
-24
-23
-22
-22
-24
-24
-23
-20
-20
-24
-22
-22
-20
-23
-19
-21
-18
-23
-18
-21
-19
-20
-14
-19
-19
-19
-20
-21
-18
-18
-18
-14
-19
-16
-15
-19
-15
-19
-14
-15
-15
-14
-12
-16
-17
-14
-14
-14
-13
-19
-16
-19
-16
-12
-12
-13
-15
-10
-12
-15
-12
-13
-12
-9
-11
-8
-10
-6
-11
-4
-1
1
4
5
6
6
3
5
0
-5
-7
-9
-7
-9
-6
-7
-7
-7
-3
-8
-11
-13
-20
-25
-25
-12
2
30
70
118
174
235
267
235
161
89
31
-6
-29
-40
-44
-48
-48
-42
-41
-43
-40
-41
-41
-37
-38
-37
-35
-31
-31
-33
-29
-27
-25
-27
-23
-22
-23
-21
-17
-17
-17
-15
-10
-13
-9
-6
-7
-5
-5
0
-7
-7
1
0
0
-4
-3
-7
-8
-7
0
-7
-4
-4
-8
-4
-6
-6
-5
-2
-4
-3
0
0
-3
-5
-4
-6
-5
-7
-11
-11
-15
-16
-16
-16
-19
-18
-15
-19
-17
-17
-16
-15
-17
-16
-14
-13
-12
-10
-10
-10
-9
-10
-7
-9
-10
-9
-10
-9
-10
-13
-9
-8
-9
-9
-7
-7
-12
-11
-14
-10
-10
-6
-8
-11
-7
-6
-10
-7
-7
-8
-8
-5
-4
-6
-5
-6
-4
-7
-7
-6
-9
-9
-9
-7
-10
-7
-8
-7
-7
-4
-6
-6
-7
-9
-9
-7
-9
-7
-7
-4
-8
-3
-3
-6
-5
2
0
-5
-5
-5
-5
-3
-8
-8
-8
-6
-10
-11
-7
-6
-6
-7
-5
1
2
6
10
10
8
9
4
1
-1
-1
-3
-5
-5
-6
-5
-6
-3
0
-1
-3
-2
-4
-11
-17
-19
-12
-5
20
48
88
138
193
240
242
193
128
62
17
-11
-29
-38
-39
-38
-42
-40
-37
-40
-40
-35
-40
-37
-37
-32
-31
-30
-30
-28
-24
-26
-24
-23
-22
-21
-21
-21
-19
-15
-13
-13
-12
-9
-6
-6
-7
-6
-3
-5
-2
0
0
-1
2
-5
-7
-5
-4
-4
-5
-6
-6
-9
-9
-9
-10
-13
-15
-15
-13
-12
-12
-11
-11
-8
-11
-9
-12
-11
-12
-13
-14
-12
-11
-12
-17
-13
-16
-15
-17
-19
-20
-18
-21
-16
-13
-14
-14
-12
-12
-12
-9
-4
-9
-8
-9
-9
-12
-17
-16
-23
-21
-20
-24
-18
-21
-22
-20
-21
-15
-21
-16
-17
-18
-19
-20
-23
-20
-22
-19
-21
-18
-18
-19
-24
-22
-24
-27
-21
-20
-18
-18
-18
-19
-22
-24
-23
-18
-21
-16
-22
-21
-23
-25
-21
-18
-18
-18
-16
-22
-23
-23
-23
-19
-23
-24
-23
-20
-23
-22
-20
-25
-24
-23
-22
-20
-18
-21
-21
-18
-23
-14
-14
-8
-9
-6
-6
-9
-14
-19
-21
-20
-20
-23
-25
-27
-22
-23
-20
-20
-23
-25
-26
-31
-35
-36
-30
-18
7
40
85
137
204
258
275
220
148
69
6
-28
-50
-60
-68
-68
-65
-67
-63
-59
-56
-57
-56
-57
-52
-48
-53
-51
-49
-47
-42
-40
-41
-40
-39
-36
-33
-32
-29
-25
-29
-26
-22
-20
-22
-20
-17
-15
-18
-15
-13
-8
-6
-3
-4
-5
-3
-4
-9
-10
-14
-15
-22
-20
-20
-24
-27
-26
-24
-25
-24
-25
-24
-25
-22
-23
-19
-20
-18
-23
-21
-26
-25
-27
-26
-32
-31
-30
-24
-25
-28
-23
-28
-24
-25
-23
-22
-23
-17
-20
-19
-20
-15
-16
-19
-22
-20
-21
-21
-24
-22
-25
-24
-25
-25
-23
-23
-25
-20
-22
-25
-23
-25
-23
-20
-22
-25
-23
-23
-21
-22
-22
-26
-26
-22
-25
-21
-21
-20
-18
-20
-19
-19
-18
-18
-18
-16
-14
-17
-19
-21
-16
-15
-12
-14
-12
-10
-11
-6
-7
-3
0
0
1
1
-4
-6
-3
-4
-5
-9
-8
-9
-15
-14
-11
-12
-9
-10
-12
-15
-20
-19
-20
-11
10
36
74
130
175
238
289
285
219
131
59
9
-29
-45
-52
-56
-55
-52
-50
-45
-45
-43
-37
-39
-36
-31
-27
-24
-27
-25
-23
-23
-18
-18
-16
-14
-12
-10
-12
-11
-8
-5
-1
0
5
4
7
9
8
9
11
10
11
14
11
13
12
14
12
11
4
5
2
1
0
-3
-5
-6
-9
-11
-7
-10
-9
-9
-9
-6
-7
-8
-12
-15
-16
-18
-19
-18
-16
-19
-18
-19
-18
-20
-19
-18
-16
-16
-12
-16
-14
-15
-15
-13
-12
-10
-11
-12
-11
-10
-12
-15
-11
-15
-12
-17
-17
-19
-14
-14
-15
-18
-14
-20
-15
-12
-13
-17
-14
-17
-17
-16
-16
-16
-17
-15
-11
-9
-12
-8
-12
-12
-13
-14
-13
-12
-12
-12
-10
-14
-13
-14
-11
-5
-9
-5
-1
0
2
4
6
3
7
8
7
5
1
-5
-3
-1
-2
-5
-6
-2
-4
-4
-6
-9
-8
-11
-16
-18
-15
-4
18
46
86
129
187
245
288
275
212
127
59
7
-25
-43
-47
-53
-50
-48
-45
-45
-39
-38
-32
-30
-28
-28
-29
-24
-26
-22
-21
-21
-22
-21
-17
-15
-11
-13
-10
-5
-5
-3
4
2
4
1
10
11
8
10
15
16
15
13
15
15
16
15
16
16
11
7
8
5
5
1
-3
-5
-3
-4
-7
-7
-7
-9
-10
-9
-8
-9
-11
-8
-11
-14
-14
-16
-17
-13
-12
-13
-19
-16
-18
-18
-15
-15
-13
-11
-12
-13
-10
-14
-13
-18
-15
-17
-15
-13
-11
-13
-18
-15
-21
-21
-20
-21
-20
-16
-18
-22
-21
-23
-22
-23
-25
-22
-21
-20
-21
-16
-23
-21
-23
-20
-21
-20
-23
-26
-25
-25
-20
-25
-24
-21
-20
-20
-23
-19
-14
-12
-10
-6
-3
-1
-7
-9
-15
-13
-15
-16
-19
-17
-20
-18
-17
-16
-19
-21
-20
-20
-24
-28
-26
-21
-9
11
45
87
134
196
250
278
243
168
89
28
-21
-38
-56
-57
-61
-56
-53
-50
-48
-52
-50
-48
-43
-42
-44
-43
-41
-40
-36
-37
-34
-34
-32
-31
-27
-26
-24
-18
-18
-17
-14
-14
-13
-12
-9
-8
-5
-2
0
-4
2
2
5
4
7
4
2
-1
-6
-6
-6
-8
-5
-11
-12
-17
-18
-21
-17
-19
-19
-20
-18
-18
-18
-20
-21
-20
-21
-23
-25
-25
-26
-24
-29
-29
-28
-24
-26
-25
-25
-23
-23
-21
-20
-20
-22
-22
-22
-23
-23
-23
-23
-22
-25
-25
-27
-27
-27
-21
-24
-25
-29
-25
-27
-28
-23
-25
-26
-29
-27
-24
-21
-23
-24
-27
-26
-27
-33
-28
-29
-31
-26
-27
-24
-20
-26
-19
-16
-12
-11
-8
-11
-7
-14
-13
-14
-17
-20
-21
-20
-26
-26
-21
-20
-20
-19
-18
-19
-22
-28
-33
-37
-43
-32
-21
8
38
90
138
201
263
296
260
177
93
27
-17
-46
-63
-69
-67
-65
-67
-63
-59
-58
-57
-50
-51
-50
-50
-46
-43
-41
-41
-39
-37
-29
-33
-34
-30
-32
-27
-27
-25
-22
-19
-18
-17
-17
-14
-12
-11
-10
-7
0
-2
2
2
1
1
5
4
2
-2
-7
-12
-13
-17
-13
-16
-17
-14
-16
-17
-14
-8
-9
-9
-10
-10
-8
-10
-11
-16
-16
-18
-18
-22
-22
-20
-16
-18
-13
-16
-14
-19
-18
-16
-11
-12
-14
-13
-13
-17
-16
-17
-17
-16
-15
-16
-20
-23
-21
-18
-21
-20
-18
-18
-22
-23
-22
-19
-20
-24
-21
-22
-21
-23
-22
-24
-24
-25
-20
-20
-22
-18
-15
-17
-16
-14
-8
-6
-5
-4
-7
-7
-3
-5
-5
-6
-11
-9
-9
-15
-17
-16
-14
-11
-10
-9
-8
-7
-9
-14
-20
-25
-18
-10
12
42
83
138
200
264
304
282
210
124
54
4
-27
-45
-48
-53
-46
-46
-45
-47
-43
-40
-38
-37
-37
-37
-34
-31
-31
-28
-31
-32
-25
-27
-23
-20
-21
-19
-14
-10
-13
-11
-9
-7
-4
-5
-5
0
0
4
6
3
5
9
10
8
6
6
6
5
3
0
-2
-3
-6
-8
-10
-11
-10
-9
-4
-7
-9
-9
-12
-7
-11
-12
-11
-9
-13
-11
-13
-11
-8
-9
-11
-7
-14
-9
-16
-12
-12
-13
-12
-12
-11
-10
-11
-12
-14
-17
-12
-15
-13
-13
-13
-15
-13
-17
-20
-23
-23
-22
-21
-23
-15
-19
-17
-19
-17
-19
-19
-20
-22
-19
-20
-21
-17
-20
-18
-21
-20
-20
-18
-17
-21
-22
-17
-17
-13
-8
-5
-4
1
-2
-3
-7
-7
-8
-11
-14
-13
-15
-15
-12
-17
-13
-14
-13
-11
-15
-16
-21
-25
-23
-14
3
29
68
110
162
222
274
282
224
142
58
12
-24
-44
-52
-53
-52
-50
-48
-49
-47
-48
-44
-45
-45
-39
-39
-39
-39
-36
-30
-30
-30
-33
-28
-31
-23
-21
-18
-16
-16
-12
-14
-10
-8
-4
-5
-3
-2
1
1
2
4
4
6
3
7
6
4
4
1
0
-2
-7
-10
-10
-11
-13
-12
-11
-13
-13
-15
-17
-14
-10
-11
-11
-9
-14
-14
-14
-17
-17
-15
-15
-15
-16
-13
-15
-14
-15
-12
-14
-13
-15
-13
-15
-12
-15
-13
-14
-16
-15
-16
-16
-15
-20
-18
-25
-17
-17
-21
-25
-20
-22
-23
-24
-26
-25
-22
-24
-24
-22
-22
-20
-21
-20
-20
-20
-22
-24
-23
-25
-22
-23
-20
-25
-21
-21
-20
-16
-16
-17
-13
-11
-11
-9
-9
-7
-9
-15
-14
-15
-12
-16
-17
-16
-17
-17
-19
-18
-19
-18
-23
-31
-30
-32
-29
-23
-1
24
58
106
161
229
284
286
229
144
68
10
-26
-46
-51
-58
-56
-59
-56
-55
-53
-53
-53
-52
-50
-45
-48
-45
-42
-47
-43
-38
-36
-35
-36
-36
-31
-28
-29
-24
-23
-22
-22
-20
-21
-17
-15
-14
-10
-11
-9
-4
-4
-7
-9
-7
-5
-6
-11
-14
-14
-12
-12
-14
-15
-17
-19
-21
-20
-20
-16
-18
-13
-12
-12
-8
-10
-12
-14
-14
-13
-15
-15
-15
-16
-16
-13
-17
-13
-13
-19
-16
-19
-17
-16
-17
-18
-15
-12
-16
-16
-16
-15
-19
-17
-17
-18
-16
-17
-19
-23
-21
-21
-22
-20
-20
-23
-24
-24
-22
-26
-22
-22
-19
-22
-20
-17
-21
-20
-21
-22
-23
-21
-22
-24
-23
-21
-21
-19
-14
-19
-19
-15
-13
-10
-9
-7
-5
-2
-4
-5
-6
-10
-14
-15
-15
-12
-16
-14
-14
-13
-10
-15
-14
-18
-16
-24
-29
-31
-28
-14
10
40
82
135
203
264
301
269
193
97
39
-13
-39
-51
-53
-54
-56
-54
-56
-53
-51
-57
-52
-49
-46
-48
-41
-40
-40
-37
-34
-37
-36
-32
-33
-30
-29
-26
-23
-22
-19
-17
-14
-11
-11
-8
-9
-8
-6
1
1
2
3
-2
0
1
-3
2
-4
-4
-8
-11
-8
-13
-13
-14
-15
-12
-12
-14
-11
-9
-8
-8
-9
-12
-6
-7
-4
-6
-7
-9
-8
-9
-9
-13
-6
-8
-7
-8
-9
-11
-7
-7
-4
-8
-9
-8
-8
-11
-6
-10
-11
-13
-15
-13
-15
-13
-14
-19
-20
-16
-16
-16
-16
-21
-14
-16
-19
-22
-25
-18
-20
-23
-21
-20
-19
-19
-16
-18
-18
-15
-12
-13
-14
-14
-15
-14
-18
-14
-12
-13
-17
-15
-15
-11
-10
-9
-9
-5
-1
-2
2
5
2
-4
0
-4
-4
-8
-6
-10
-13
-15
-13
-11
-13
-11
-6
-6
-10
-18
-23
-24
-15
-3
24
55
101
153
215
268
291
247
168
91
30
-15
-35
-45
-44
-50
-48
-44
-49
-47
-47
-44
-38
-41
-39
-38
-34
-37
-36
-35
-30
-30
-29
-27
-27
-20
-21
-19
-17
-18
-18
-16
-14
-12
-9
-4
-8
-5
-3
-5
-2
-4
0
0
0
4
2
2
-6
-5
-8
-11
-12
-14
-17
-19
-21
-20
-19
-21
-23
-20
-17
-12
-14
-15
-14
-16
-14
-12
-12
-11
-13
-14
-14
-17
-17
-17
-14
-13
-10
-13
-9
-8
-11
-14
-13
-14
-12
-13
-13
-16
-16
-13
-13
-13
-12
-15
-19
-18
-19
-18
-19
-17
-18
-22
-25
-21
-22
-21
-23
-23
-18
-18
-19
-18
-20
-19
-20
-22
-21
-24
-20
-19
-21
-18
-21
-19
-18
-19
-21
-19
-20
-16
-16
-19
-20
-17
-17
-15
-17
-21
-16
-16
-11
-11
-8
-8
-5
0
3
2
4
-5
-7
-8
-10
-10
-11
-9
-15
-8
-9
-13
-8
-14
-12
-15
-19
-22
-24
-24
-11
10
38
77
120
177
237
280
266
198
120
47
-3
-27
-42
-47
-50
-53
-50
-52
-51
-46
-44
-45
-39
-40
-41
-39
-39
-38
-37
-36
-35
-30
-31
-30
-24
-25
-23
-18
-16
-15
-15
-13
-12
-12
-11
-8
-6
-7
-5
0
4
1
3
-2
3
-1
-4
-7
-9
-9
-10
-10
-13
-18
-19
-20
-19
-18
-16
-17
-15
-13
-10
-10
-10
-8
-4
-7
-11
-11
-12
-9
-10
-10
-8
-11
-11
-7
-7
-11
-8
-11
-8
-10
-10
-8
-7
-10
-13
-13
-13
-16
-15
-14
-18
-17
-19
-18
-16
-19
-17
-15
-17
-17
-17
-19
-19
-20
-20
-21
-20
-22
-24
-21
-27
-24
-24
-24
-26
-27
-25
-24
-20
-22
-19
-22
-21
-21
-22
-24
-22
-21
-18
-18
-20
-19
-18
-19
-21
-23
-21
-19
-18
-22
-21
-18
-18
-19
-14
-12
-9
-3
0
1
-3
-5
-7
-10
-11
-8
-12
-15
-13
-15
-13
-13
-15
-15
-13
-12
-15
-16
-21
-28
-28
-18
2
25
62
114
172
244
285
287
226
139
66
10
-22
-38
-53
-55
-55
-55
-50
-49
-51
-53
-44
-51
-44
-47
-46
-44
-42
-40
-41
-37
-37
-33
-32
-33
-27
-27
-28
-27
-24
-22
-19
-18
-16
-13
-11
-11
-7
-9
-6
-9
-7
-6
-6
-7
-11
-9
-9
-8
-14
-13
-10
-15
-18
-20
-18
-18
-18
-18
-17
-15
-11
-14
-13
-14
-13
-11
-8
-7
-8
-9
-11
-9
-14
-11
-13
-10
-9
-9
-10
-13
-8
-7
-5
-6
-13
-11
-13
-12
-11
-11
-10
-13
-15
-14
-20
-21
-16
-18
-17
-17
-17
-16
-15
-18
-23
-21
-21
-19
-17
-19
-16
-20
-23
-20
-20
-19
-22
-17
-16
-16
-18
-15
-17
-15
-19
-17
-15
-15
-12
-13
-12
-13
-20
-19
-18
-17
-16
-13
-13
-8
-8
-8
-8
-9
-8
-4
-1
1
5
7
1
-3
-4
-7
-11
-10
-11
-9
-9
-8
-7
-12
-11
-8
-10
-13
-19
-23
-28
-24
-11
11
43
88
151
212
269
297
260
180
96
31
-8
-30
-44
-46
-47
-47
-41
-41
-41
-43
-42
-40
-41
-37
-34
-35
-34
-32
-35
-32
-32
-27
-31
-27
-24
-20
-19
-17
-17
-17
-15
-14
-11
-11
-9
-11
-8
1
0
0
-2
-1
-1
0
4
-5
-2
-6
-2
-5
-7
-8
-13
-18
-24
-21
-23
-22
-18
-19
-18
-17
-13
-13
-14
-11
-9
-6
-13
-12
-15
-12
-10
-9
-14
-11
-10
-12
-13
-11
-8
-10
-9
-8
-9
-10
-10
-9
-10
-11
-12
-14
-16
-14
-15
-15
-17
-19
-20
-20
-21
-19
-20
-22
-20
-20
-25
-20
-21
-20
-22
-20
-20
-17
-19
-20
-22
-17
-17
-18
-21
-18
-20
-19
-15
-17
-17
-16
-16
-16
-12
-13
-13
-14
-16
-19
-19
-19
-17
-19
-18
-16
-14
-13
-10
-12
-13
-13
-10
-8
-6
2
4
5
5
2
-4
-5
-6
-8
-8
-8
-8
-9
-5
-9
-10
-9
-7
-6
-12
-16
-18
-19
-19
-13
8
31
71
117
176
234
277
269
208
123
56
5
-24
-38
-44
-48
-48
-47
-47
-46
-42
-44
-44
-44
-50
-49
-43
-42
-39
-35
-39
-34
-36
-33
-33
-32
-29
-24
-22
-20
-23
-18
-18
-17
-10
-15
-13
-11
-8
-9
-6
-7
-6
-5
-4
-5
-7
-8
-10
-17
-18
-17
-17
-19
-21
-27
-27
-22
-21
-26
-22
-20
-21
-17
-15
-16
-19
-17
-16
-17
-15
-19
-17
-11
-7
-11
-14
-15
-15
-11
-10
-13
-12
-13
-16
-13
-13
-17
-17
-12
-8
-15
-13
-13
-12
-14
-17
-18
-17
-19
-17
-15
-18
-21
-25
-21
-21
-22
-23
-23
-18
-20
-20
-20
-21
-20
-24
-25
-20
-17
-18
-16
-19
-19
-22
-18
-14
-17
-15
-19
-19
-17
-17
-19
-17
-14
-14
-16
-19
-15
-12
-17
-16
-12
-14
-13
-9
-9
-9
-10
-9
-5
-5
0
-1
2
-4
-7
-6
-8
-8
-10
-12
-12
-8
-9
-7
-10
-9
-14
-8
-11
-17
-21
-24
-24
-19
0
26
60
107
164
231
290
296
241
159
84
23
-12
-38
-51
-54
-54
-52
-55
-54
-53
-50
-48
-48
-47
-46
-44
-45
-41
-41
-41
-38
-37
-36
-31
-30
-30
-30
-26
-23
-27
-21
-20
-19
-16
-14
-14
-18
-15
-11
-13
-9
-7
-11
-7
-10
-10
-11
-13
-12
-16
-15
-19
-22
-24
-25
-24
-25
-27
-22
-20
-19
-23
-22
-19
-16
-11
-14
-14
-14
-14
-13
-16
-16
-13
-16
-16
-14
-14
-13
-13
-13
-15
-11
-8
-7
-9
-13
-10
-12
-9
-12
-8
-13
-8
-15
-19
-21
-15
-16
-18
-16
-17
-21
-20
-18
-21
-19
-19
-22
-21
-23
-21
-21
-18
-16
-22
-21
-22
-16
-19
-18
-19
-20
-19
-21
-16
-15
-17
-17
-12
-14
-16
-16
-16
-15
-14
-15
-14
-15
-17
-15
-17
-16
-15
-13
-9
-9
-10
-6
-6
-2
3
4
5
3
4
1
2
-2
-6
-9
-9
-6
-5
-10
-9
-7
-7
-8
-10
-12
-21
-23
-23
-18
0
21
57
101
154
221
280
295
249
172
91
31
-10
-31
-42
-48
-49
-48
-47
-46
-45
-45
-41
-37
-41
-39
-36
-37
-33
-34
-33
-26
-28
-24
-27
-24
-25
-22
-19
-18
-21
-15
-13
-11
-7
-11
-4
-5
-5
-3
-7
-5
-5
0
-1
5
-3
0
-3
-6
-6
-7
-9
-11
-15
-16
-15
-15
-19
-22
-21
-21
-17
-16
-13
-15
-14
-9
-7
-7
-10
-8
-12
-8
-15
-12
-10
-9
-8
-7
-5
-7
-5
-5
-5
-6
-9
-3
-5
-4
-7
-6
-9
-7
-7
-6
-10
-12
-13
-9
-13
-12
-13
-16
-16
-14
-16
-15
-17
-16
-13
-14
-15
-19
-15
-19
-21
-17
-18
-18
-16
-15
-17
-18
-19
-17
-14
-17
-21
-19
-16
-15
-13
-10
-12
-15
-13
-13
-10
-11
-14
-12
-12
-13
-11
-10
-15
-16
-15
-15
-15
-15
-13
-11
-6
1
-2
2
-1
0
-2
-4
-8
-7
-8
-8
-7
-6
-8
-10
-9
-10
-10
-11
-11
-11
-18
-22
-25
-18
-10
14
33
72
118
176
237
278
266
206
126
58
9
-23
-39
-45
-49
-49
-49
-47
-44
-47
-49
-46
-45
-41
-41
-45
-39
-41
-32
-37
-35
-32
-32
-33
-33
-30
-31
-26
-20
-20
-21
-19
-21
-17
-14
-14
-13
-14
-8
-11
-9
-5
-3
-3
-7
-7
-11
-11
-14
-18
-21
-25
-25
-24
-25
-26
-29
-27
-28
-26
-26
-25
-27
-22
-19
-18
-16
-21
-20
-17
-18
-19
-21
-16
-17
-17
-14
-12
-12
-12
-14
-18
-16
-14
-14
-16
-14
-11
-14
-11
-12
-13
-13
-17
-19
-17
-18
-19
-20
-25
-24
-23
-24
-29
-25
-26
-24
-28
-27
-25
-24
-22
-22
-20
-25
-22
-24
-25
-25
-22
-21
-20
-22
-21
-20
-20
-23
-21
-18
-18
-23
-23
-17
-19
-18
-19
-18
-18
-16
-16
-17
-12
-15
-15
-13
-13
-15
-15
-16
-18
-18
-15
-12
-10
-9
-11
-9
-4
-1
-1
1
-3
-6
-4
-7
-7
-9
-10
-10
-11
-9
-8
-12
-9
-6
-11
-11
-18
-22
-27
-21
-8
15
46
87
135
197
262
299
276
190
110
42
1
-29
-41
-47
-50
-48
-48
-47
-51
-49
-49
-46
-43
-43
-43
-43
-42
-37
-41
-36
-31
-36
-34
-31
-29
-27
-26
-23
-23
-20
-19
-18
-17
-17
-13
-12
-9
-3
-4
-4
-6
-8
-6
-3
-6
-7
-6
-5
-6
-4
-11
-12
-18
-17
-21
-21
-20
-19
-19
-20
-15
-13
-15
-17
-12
-13
-9
-12
-13
-15
-13
-14
-8
-10
-12
-15
-13
-12
-13
-13
-13
-13
-12
-13
-10
-10
-6
-4
-6
-11
-15
-10
-11
-12
-15
-16
-14
-17
-12
-16
-14
-16
-17
-16
-14
-14
-12
-16
-20
-19
-17
-14
-12
-15
-18
-21
-18
-17
-16
-17
-17
-19
-11
-11
-11
-14
-16
-15
-14
-16
-13
-16
-14
-15
-13
-11
-9
-13
-15
-13
-10
-11
-11
-12
-11
-10
-14
-11
-8
-7
2
1
3
5
4
8
3
3
1
2
2
-6
-11
-8
-10
-7
-7
-6
-8
-7
-8
-6
-6
-13
-18
-21
-19
-3
21
46
89
143
203
268
299
265
190
106
36
-8
-29
-41
-47
-46
-51
-52
-49
-49
-49
-42
-42
-41
-43
-41
-36
-35
-36
-33
-32
-33
-32
-28
-27
-24
-25
-25
-24
-22
-17
-17
-14
-13
-17
-13
-7
-4
-7
-2
0
1
-2
-5
-2
-4
-8
-7
-11
-14
-14
-16
-16
-22
-22
-20
-20
-20
-23
-25
-25
-22
-16
-16
-19
-16
-17
-11
-15
-13
-15
-15
-19
-19
-15
-16
-14
-14
-15
-15
-15
-8
-13
-13
-12
-11
-11
-11
-13
-10
-10
-10
-12
-9
-10
-10
-13
-16
-13
-10
-14
-18
-18
-20
-18
-15
-19
-17
-16
-16
-19
-21
-22
-20
-17
-20
-18
-17
-14
-16
-16
-16
-17
-17
-18
-12
-8
-11
-10
-12
-12
-13
-14
-12
-12
-10
-11
-14
-13
-11
-9
-9
-13
-8
-7
-9
-9
-8
-8
-8
-9
-11
-9
-3
0
-2
-7
-4
-4
1
4
4
8
8
3
3
4
3
-7
-9
-8
-6
-5
-9
-9
-10
-10
-13
-13
-15
-19
-20
-22
-20
-8
13
37
71
121
178
242
288
276
203
119
48
0
-29
-41
-44
-49
-51
-49
-49
-50
-49
-42
-43
-43
-46
-45
-40
-32
-36
-39
-34
-36
-34
-33
-32
-31
-30
-27
-26
-26
-25
-20
-20
-15
-13
-16
-16
-15
-15
-8
-7
-8
-11
-6
-7
-6
-6
-10
-14
-19
-21
-20
-18
-22
-26
-27
-33
-29
-31
-30
-29
-29
-28
-25
-22
-14
-15
-15
-19
-17
-19
-18
-13
-16
-15
-17
-20
-15
-20
-20
-15
-18
-13
-13
-15
-12
-18
-17
-21
-19
-13
-10
-13
-14
-16
-18
-19
-22
-18
-20
-19
-18
-22
-23
-18
-19
-22
-22
-26
-28
-23
-24
-23
-24
-27
-26
-20
-23
-23
-23
-23
-22
-24
-21
-19
-16
-16
-16
-16
-14
-17
-12
-14
-17
-21
-17
-16
-19
-17
-17
-16
-17
-18
-16
-18
-13
-15
-13
-12
-12
-16
-19
-16
-16
-13
-11
-12
-12
-12
-10
-7
-4
-5
1
3
2
-3
0
-8
-9
-10
-11
-11
-12
-11
-9
-11
-7
-8
-7
-5
-12
-16
-22
-25
-22
-13
8
34
73
119
183
252
303
294
231
140
61
5
-27
-45
-54
-51
-52
-47
-45
-45
-45
-42
-40
-36
-39
-37
-40
-36
-34
-29
-30
-29
-26
-25
-22
-21
-19
-18
-17
-18
-13
-12
-13
-15
-6
-3
-1
-6
-3
-1
6
5
6
7
5
8
5
6
3
1
-8
-8
-7
-8
-11
-10
-16
-18
-18
-14
-17
-14
-12
-17
-17
-10
-11
-8
-8
-8
-11
-15
-18
-14
-15
-18
-21
-23
-22
-18
-18
-18
-16
-15
-12
-13
-14
-10
-9
-7
-14
-13
-10
-15
-15
-13
-14
-14
-13
-13
-14
-14
-14
-18
-20
-20
-21
-21
-22
-20
-18
-20
-20
-18
-20
-18
-23
-17
-22
-20
-22
-20
-23
-20
-16
-16
-21
-21
-25
-22
-22
-22
-21
-19
-19
-14
-15
-17
-18
-19
-17
-18
-19
-17
-14
-16
-17
-17
-13
-14
-9
-11
-8
0
-1
3
-1
-8
-12
-14
-13
-15
-10
-8
-9
-13
-19
-23
-19
-18
-11
-9
-8
-15
-17
-19
-23
-18
-5
18
51
98
155
219
283
307
264
177
89
25
-12
-35
-44
-49
-50
-51
-51
-50
-45
-44
-46
-45
-43
-43
-40
-41
-40
-33
-34
-37
-32
-31
-33
-32
-27
-23
-21
-16
-17
-14
-17
-15
-12
-10
-5
-5
-2
1
1
-1
4
0
2
3
-1
3
2
-1
-2
-9
-12
-10
-11
-15
-11
-19
-24
-25
-26
-23
-19
-14
-14
-19
-16
-19
-14
-15
-12
-14
-12
-16
-15
-12
-12
-9
-13
-16
-17
-14
-12
-10
-9
-6
-5
-9
-5
-5
-6
-11
-11
-12
-11
-9
-8
-12
-13
-12
-10
-14
-14
-16
-15
-16
-14
-17
-18
-16
-19
-20
-13
-12
-16
-16
-14
-17
-15
-16
-18
-16
-14
-15
-15
-13
-10
-13
-16
-17
-17
-13
-15
-14
-13
-10
-11
-13
-11
-14
-15
-16
-14
-15
-14
-9
-11
-9
-11
-4
-4
-2
-3
-3
-2
4
4
4
2
-2
-4
-8
-8
-7
-7
-9
-7
-9
-9
-10
-12
-10
-13
-14
-16
-24
-27
-20
-8
10
36
77
128
187
253
299
294
226
142
69
10
-26
-45
-53
-55
-54
-51
-51
-47
-48
-47
-51
-47
-46
-43
-45
-42
-42
-41
-43
-40
-41
-36
-32
-31
-30
-31
-26
-26
-23
-19
-23
-21
-18
-17
-17
-13
-12
-12
-8
-8
-8
-4
-7
-6
-6
-5
-8
-10
-15
-21
-19
-21
-21
-22
-25
-29
-32
-30
-28
-33
-27
-26
-23
-25
-27
-27
-24
-24
-24
-20
-25
-24
-24
-24
-25
-25
-21
-23
-17
-20
-17
-21
-22
-19
-17
-14
-15
-17
-15
-17
-14
-11
-7
-8
-11
-15
-16
-18
-17
-17
-19
-17
-14
-16
-15
-14
-21
-16
-17
-15
-14
-17
-20
-17
-18
-15
-17
-17
-14
-17
-21
-19
-21
-20
-19
-17
-15
-13
-12
-11
-11
-12
-12
-12
-15
-11
-12
-11
-10
-12
-8
-13
-13
-13
-14
-15
-12
-10
-7
-8
-8
-4
-2
-1
2
4
4
6
3
7
-1
-5
-1
0
-2
-5
-9
-7
-8
-8
-7
-8
-9
-5
-12
-15
-22
-20
-12
5
25
57
105
158
221
282
304
260
174
92
25
-8
-35
-47
-50
-48
-47
-46
-49
-49
-49
-48
-45
-40
-39
-35
-38
-37
-37
-33
-33
-31
-29
-33
-31
-28
-29
-23
-22
-18
-16
-16
-12
-11
-9
-6
-9
-6
-2
2
-1
0
1
1
3
5
5
7
4
3
1
0
-5
-12
-15
-14
-12
-12
-13
-16
-18
-16
-13
-14
-14
-15
-19
-18
-15
-19
-17
-20
-23
-21
-23
-23
-26
-27
-27
-26
-20
-20
-19
-17
-19
-19
-19
-18
-19
-15
-17
-18
-18
-19
-22
-22
-22
-22
-22
-22
-25
-21
-23
-20
-21
-24
-25
-22
-21
-20
-23
-24
-24
-22
-23
-24
-20
-23
-20
-22
-21
-21
-22
-22
-21
-25
-21
-21
-18
-19
-22
-21
-20
-22
-23
-17
-20
-18
-17
-18
-17
-15
-13
-9
-9
-2
-4
1
0
-5
-6
-6
-9
-9
-10
-9
-9
-13
-9
-10
-12
-13
-13
-15
-15
-20
-26
-28
-29
-20
-11
14
50
95
150
214
274
303
262
182
95
33
-13
-38
-50
-57
-59
-55
-52
-45
-46
-50
-49
-49
-47
-45
-46
-42
-41
-36
-35
-34
-36
-33
-28
-28
-27
-22
-16
-25
-21
-18
-17
-13
-15
-11
-9
-6
0
3
1
3
2
4
3
4
3
2
-1
2
4
0
2
-6
-11
-13
-15
-17
-16
-18
-21
-20
-20
-21
-15
-16
-16
-18
-21
-20
-19
-19
-20
-22
-20
-20
-18
-17
-17
-16
-22
-19
-21
-23
-16
-16
-18
-13
-16
-15
-15
-17
-14
-13
-15
-11
-13
-12
-14
-16
-16
-14
-16
-15
-15
-19
-20
-19
-24
-22
-15
-13
-17
-21
-18
-17
-20
-19
-20
-18
-15
-17
-18
-15
-17
-13
-13
-13
-16
-16
-19
-18
-19
-16
-15
-20
-20
-20
-20
-20
-15
-11
-13
-11
-15
-9
-5
-4
-5
-2
0
-2
-5
-10
-8
-8
-8
-10
-12
-12
-10
-8
-8
-5
-11
-12
-13
-15
-25
-29
-26
-17
5
30
70
113
169
231
283
291
231
147
65
18
-19
-38
-44
-48
-46
-48
-49
-49
-50
-47
-46
-45
-43
-39
-40
-38
-35
-36
-34
-37
-35
-30
-29
-31
-26
-24
-28
-25
-20
-19
-17
-11
-9
0
-6
-6
-5
-4
-2
-1
3
-1
-1
-1
-3
1
0
-5
-2
-6
-8
-10
-12
-13
-16
-18
-17
-19
-20
-19
-23
-22
-19
-17
-14
-17
-17
-18
-18
-19
-19
-18
-18
-17
-18
-20
-16
-18
-15
-13
-15
-14
-15
-9
-12
-12
-14
-15
-12
-12
-15
-15
-15
-15
-18
-14
-17
-17
-17
-17
-17
-17
-18
-19
-16
-17
-21
-22
-20
-22
-21
-23
-20
-15
-21
-17
-22
-24
-21
-18
-19
-21
-24
-23
-21
-16
-16
-18
-15
-15
-10
-14
-11
-15
-20
-19
-16
-19
-14
-21
-17
-19
-13
-13
-14
-14
-15
-10
-6
0
0
4
6
3
-4
-6
-9
-13
-13
-14
-13
-11
-13
-13
-10
-8
-15
-13
-15
-16
-20
-20
-27
-17
5
29
70
119
180
242
292
293
228
145
68
13
-19
-39
-48
-53
-52
-49
-50
-52
-48
-50
-45
-47
-49
-49
-45
-44
-43
-41
-40
-37
-34
-35
-32
-32
-32
-28
-26
-22
-22
-20
-19
-18
-15
-14
-7
-9
-7
-8
-7
-5
-6
-3
-3
-6
-5
-3
-2
-1
-5
-8
-9
-13
-15
-18
-21
-21
-17
-18
-21
-21
-17
-19
-15
-14
-13
-14
-13
-12
-17
-16
-15
-15
-16
-16
-18
-15
-14
-13
-14
-15
-13
-13
-13
-12
-15
-10
-12
-11
-12
-13
-10
-8
-9
-13
-12
-19
-17
-17
-17
-19
-19
-19
-20
-18
-21
-21
-18
-21
-22
-24
-17
-21
-23
-22
-22
-20
-17
-15
-17
-21
-20
-16
-16
-17
-20
-21
-18
-18
-17
-15
-17
-16
-17
-12
-15
-17
-16
-16
-11
-7
-9
-7
-6
-4
1
0
4
6
3
0
1
-5
-8
-7
-8
-10
-9
-8
-9
-6
-7
-4
-9
-6
-12
-19
-24
-27
-18
0
19
51
102
156
230
284
304
259
174
93
35
-10
-30
-43
-44
-45
-46
-50
-49
-49
-45
-46
-47
-41
-37
-42
-41
-38
-37
-37
-31
-33
-33
-32
-29
-26
-27
-24
-22
-21
-17
-15
-15
-12
-10
-9
-8
-5
-3
-1
-5
-2
-3
3
2
1
1
-1
0
-9
-11
-13
-10
-10
-12
-17
-16
-15
-16
-15
-14
-15
-19
-17
-16
-15
-15
-14
-14
-13
-15
-15
-18
-19
-19
-19
-15
-15
-14
-16
-13
-15
-11
-14
-12
-11
-16
-12
-11
-12
-8
-11
-9
-10
-8
-9
-10
-9
-12
-16
-16
-17
-19
-20
-15
-19
-17
-19
-19
-19
-20
-19
-23
-23
-18
-20
-19
-17
-15
-15
-17
-17
-15
-18
-19
-17
-16
-20
-17
-16
-17
-18
-16
-17
-16
-19
-16
-16
-15
-15
-19
-18
-15
-8
-8
-4
-4
1
-1
-4
-8
-9
-12
-11
-9
-13
-8
-13
-9
-10
-12
-12
-13
-12
-10
-17
-17
-20
-23
-18
-3
19
53
93
148
209
267
292
256
177
93
32
-9
-31
-45
-47
-51
-51
-47
-49
-49
-48
-46
-46
-40
-39
-38
-40
-41
-38
-36
-36
-32
-31
-28
-30
-30
-27
-25
-25
-24
-21
-17
-19
-14
-13
-14
-10
-5
-4
-3
-2
-4
-7
-2
-3
0
-5
-5
-8
-7
-8
-14
-15
-16
-14
-16
-19
-21
-19
-22
-20
-20
-17
-19
-17
-19
-17
-16
-14
-11
-10
-13
-17
-13
-15
-14
-14
-11
-11
-11
-15
-13
-9
-15
-11
-10
-7
-8
-10
-10
-7
-5
-8
-9
-6
-5
-6
-8
-8
-11
-10
-15
-13
-17
-17
-14
-14
-12
-17
-14
-17
-17
-16
-14
-16
-14
-18
-16
-16
-14
-16
-13
-19
-13
-15
-17
-14
-15
-16
-14
-10
-13
-16
-14
-12
-15
-13
-18
-16
-11
-12
-12
-10
-9
-4
-1
3
3
3
1
-3
0
-2
-5
-5
-9
-10
-11
-9
-9
-7
-9
-9
-10
-10
-10
-16
-16
-23
-21
-12
4
29
61
105
166
224
272
272
215
136
61
13
-18
-37
-43
-47
-49
-45
-44
-44
-45
-50
-45
-44
-42
-43
-39
-40
-34
-35
-31
-32
-31
-32
-32
-29
-29
-27
-27
-21
-22
-19
-20
-16
-15
-12
-16
-13
-11
-11
-11
-11
-11
-8
-6
-6
-8
-11
-12
-15
-13
-17
-15
-17
-21
-25
-23
-23
-22
-27
-27
-26
-29
-26
-22
-21
-19
-20
-14
-18
-19
-18
-17
-16
-14
-17
-14
-16
-15
-15
-19
-15
-16
-13
-13
-14
-14
-15
-15
-13
-11
-13
-12
-14
-16
-14
-15
-17
-17
-17
-17
-19
-20
-23
-21
-23
-21
-20
-22
-21
-25
-23
-23
-23
-22
-25
-25
-25
-23
-25
-26
-27
-27
-25
-24
-20
-22
-24
-21
-23
-21
-23
-24
-22
-21
-20
-21
-22
-17
-18
-20
-22
-24
-18
-12
-8
-7
-8
-9
-3
-3
-9
-7
-9
-11
-12
-17
-15
-15
-15
-19
-15
-14
-14
-12
-14
-17
-20
-29
-28
-27
-18
6
31
78
120
183
249
292
277
210
123
53
4
-26
-42
-50
-54
-56
-56
-50
-48
-48
-47
-48
-51
-44
-45
-45
-42
-42
-37
-33
-37
-40
-40
-35
-32
-30
-26
-29
-27
-23
-23
-22
-19
-14
-10
-13
-13
-12
-11
-11
-5
-8
-6
-6
-13
-10
-7
-8
-17
-18
-16
-17
-19
-21
-21
-20
-19
-21
-21
-20
-19
-15
-16
-14
-16
-16
-17
-16
-16
-16
-17
-16
-16
-19
-20
-12
-12
-10
-12
-16
-16
-15
-18
-15
-17
-14
-16
-14
-14
-11
-10
-11
-13
-16
-18
-16
-17
-19
-17
-16
-21
-23
-18
-19
-19
-23
-22
-21
-22
-20
-21
-21
-20
-17
-17
-17
-20
-20
-19
-17
-16
-18
-18
-20
-19
-16
-14
-17
-17
-18
-14
-13
-14
-13
-14
-15
-14
-14
-11
-10
-10
-9
-3
-3
2
3
4
3
2
3
-2
-9
-6
-12
-8
-8
-6
-8
-8
-9
-7
-7
-6
-8
-12
-19
-25
-25
-13
9
38
75
133
184
251
298
286
212
132
58
7
-21
-36
-46
-43
-42
-42
-44
-45
-43
-42
-41
-41
-39
-39
-36
-37
-33
-30
-32
-29
-25
-24
-25
-24
-24
-22
-19
-17
-13
-9
-9
-7
-10
-12
-9
-4
-4
1
1
-3
2
2
-3
-3
0
-1
-5
-7
-8
-10
-12
-12
-16
-17
-18
-19
-16
-18
-20
-19
-16
-17
-13
-14
-13
-10
-11
-12
-12
-14
-15
-12
-13
-12
-10
-6
-9
-9
-7
-8
-10
-8
-7
-9
-8
-5
-6
-8
-6
-7
-7
-7
-9
-11
-9
-10
-12
-13
-13
-13
-12
-11
-15
-19
-15
-12
-14
-17
-21
-17
-16
-19
-19
-20
-19
-15
-17
-15
-21
-15
-17
-17
-16
-17
-11
-16
-15
-17
-17
-16
-14
-17
-13
-14
-9
-10
-7
-7
-6
-5
-3
-1
6
6
4
5
1
-2
1
4
-4
-5
-4
-9
-8
-8
-7
-9
-9
-4
-2
-6
-12
-20
-22
-13
0
22
52
91
140
201
266
291
255
182
103
40
-4
-28
-41
-43
-42
-42
-45
-47
-43
-42
-41
-40
-41
-40
-40
-37
-38
-36
-36
-35
-33
-32
-31
-34
-31
-29
-27
-24
-21
-20
-17
-17
-14
-14
-9
-7
-9
-6
-3
-2
-4
-5
-5
-6
-4
-5
-7
-13
-17
-12
-15
-17
-16
-16
-20
-25
-26
-26
-27
-25
-22
-21
-17
-16
-15
-18
-15
-13
-15
-13
-11
-15
-11
-13
-11
-13
-12
-11
-10
-12
-11
-9
-8
-10
-12
-12
-12
-10
-13
-10
-12
-11
-15
-12
-13
-15
-13
-16
-19
-18
-21
-21
-23
-24
-21
-21
-24
-20
-24
-19
-23
-20
-22
-23
-23
-25
-23
-25
-21
-21
-20
-21
-20
-19
-20
-18
-17
-21
-23
-24
-23
-25
-20
-18
-18
-19
-18
-21
-17
-17
-13
-11
-9
-7
-6
-9
-9
-13
-12
-10
-13
-14
-17
-15
-15
-14
-16
-17
-15
-17
-17
-18
-19
-23
-27
-25
-18
-3
24
58
102
155
221
275
288
235
153
76
20
-16
-38
-49
-53
-49
-49
-49
-51
-51
-49
-53
-52
-47
-49
-42
-45
-43
-45
-40
-37
-37
-37
-37
-33
-31
-27
-28
-27
-24
-23
-18
-14
-14
-14
-15
-15
-14
-12
-9
-9
-9
-10
-7
-8
-7
-9
-10
-10
-11
-10
-15
-19
-20
-20
-23
-25
-23
-24
-21
-21
-15
-19
-15
-12
-15
-9
-11
-11
-16
-13
-18
-18
-16
-18
-13
-15
-14
-18
-17
-12
-15
-15
-10
-12
-11
-11
-13
-14
-13
-15
-13
-16
-16
-16
-18
-19
-20
-22
-19
-24
-21
-18
-20
-20
-23
-19
-20
-21
-22
-22
-25
-22
-21
-20
-18
-19
-19
-21
-20
-21
-21
-18
-16
-18
-19
-21
-16
-19
-18
-19
-18
-17
-13
-17
-16
-12
-11
-7
-4
-6
-4
0
0
-4
-5
-4
-7
-9
-12
-10
-9
-10
-8
-8
-12
-10
-11
-6
-11
-15
-19
-26
-29
-26
-13
7
40
80
130
194
259
300
276
204
119
51
3
-25
-41
-46
-47
-48
-49
-44
-43
-42
-45
-41
-43
-40
-43
-41
-39
-35
-34
-35
-34
-30
-28
-26
-25
-23
-22
-23
-18
-21
-20
-17
-15
-11
-8
-6
-6
-3
-4
-1
-2
-6
-5
0
-2
-4
-4
-9
-8
-11
-12
-13
-16
-19
-20
-23
-20
-20
-18
-20
-17
-14
-14
-11
-14
-16
-15
-14
-16
-15
-8
-13
-11
-12
-12
-11
-12
-11
-8
-10
-9
-12
-10
-9
-9
-8
-13
-10
-10
-8
-9
-13
-10
-14
-13
-14
-18
-15
-16
-15
-19
-19
-12
-16
-17
-18
-18
-14
-20
-16
-17
-19
-19
-17
-17
-15
-15
-16
-12
-17
-13
-8
-12
-14
-15
-18
-19
-17
-15
-15
-18
-17
-18
-15
-14
-14
-13
-9
-9
-9
-4
-1
-2
4
5
3
-2
-2
-5
-4
-9
-9
-9
-13
-12
-13
-12
-10
-6
-4
-9
-14
-20
-21
-21
-12
6
32
68
111
164
222
273
273
217
139
66
15
-20
-35
-42
-47
-47
-41
-42
-40
-42
-44
-43
-42
-40
-38
-37
-40
-39
-37
-32
-35
-27
-31
-26
-27
-23
-23
-19
-21
-21
-20
-20
-18
-16
-11
-13
-8
-11
-7
-7
-8
-7
-6
-7
-5
-4
-7
-8
-12
-17
-16
-19
-19
-20
-20
-22
-25
-24
-24
-25
-22
-20
-17
-16
-18
-15
-17
-15
-15
-13
-9
-11
-10
-14
-15
-12
-11
-9
-9
-9
-7
-10
-11
-12
-11
-9
-13
-9
-9
-7
-9
-11
-13
-12
-13
-14
-17
-17
-16
-15
-16
-17
-18
-19
-22
-21
-21
-21
-22
-23
-19
-23
-24
-22
-22
-20
-23
-21
-22
-20
-18
-20
-17
-18
-18
-20
-19
-18
-21
-22
-16
-16
-19
-22
-21
-20
-15
-16
-19
-18
-15
-11
-8
-7
-6
-5
-5
-4
-9
-8
-9
-13
-11
-11
-13
-13
-11
-13
-16
-15
-12
-13
-16
-16
-21
-25
-25
-22
-6
17
48
92
144
206
267
296
258
174
96
31
-5
-31
-42
-45
-49
-50
-47
-53
-49
-48
-48
-47
-49
-44
-45
-41
-43
-42
-44
-40
-38
-37
-34
-34
-34
-32
-27
-26
-26
-27
-22
-19
-22
-20
-17
-17
-17
-16
-14
-11
-13
-11
-15
-14
-14
-14
-17
-16
-23
-19
-20
-21
-26
-25
-28
-29
-29
-25
-22
-22
-21
-16
-15
-16
-14
-15
-12
-12
-13
-13
-16
-12
-17
-13
-15
-17
-16
-15
-16
-10
-14
-12
-12
-13
-11
-11
-13
-13
-13
-15
-15
-14
-16
-16
-16
-16
-19
-17
-14
-19
-19
-16
-18
-18
-17
-19
-20
-18
-18
-22
-17
-21
-16
-18
-18
-17
-14
-15
-16
-18
-16
-16
-16
-14
-16
-16
-19
-16
-15
-15
-15
-15
-17
-16
-17
-14
-15
-8
-10
-6
0
2
2
4
3
4
-3
-6
-6
-6
-6
-7
-10
-12
-8
-11
-8
-11
-12
-10
-9
-10
-17
-21
-22
-9
12
39
72
117
177
241
295
288
221
140
69
17
-16
-34
-44
-45
-45
-43
-44
-42
-45
-42
-43
-41
-42
-40
-40
-38
-38
-34
-35
-32
-30
-31
-30
-29
-24
-20
-24
-19
-14
-18
-15
-12
-10
-9
-7
-6
-9
-7
-3
-5
-2
-2
0
-5
-7
-5
-6
-9
-10
-9
-15
-17
-18
-21
-21
-18
-17
-18
-18
-18
-18
-15
-15
-17
-14
-14
-13
-13
-13
-13
-10
-10
-11
-11
-13
-10
-9
-12
-13
-13
-8
-12
-9
-8
-10
-12
-11
-7
-9
-9
-9
-9
-11
-12
-13
-11
-8
-14
-11
-13
-14
-13
-15
-18
-20
-21
-24
-23
-21
-20
-22
-21
-18
-24
-20
-21
-20
-20
-20
-23
-21
-19
-18
-21
-13
-18
-21
-21
-20
-18
-19
-17
-19
-20
-21
-16
-13
-15
-11
-11
-8
-9
-5
-1
-1
0
-3
-9
-7
-11
-13
-10
-10
-11
-13
-17
-10
-14
-12
-12
-15
-15
-19
-20
-25
-23
-7
12
42
84
127
187
245
279
256
182
103
42
-3
-24
-37
-41
-44
-46
-46
-48
-45
-43
-43
-41
-41
-42
-41
-40
-40
-36
-35
-35
-34
-33
-28
-26
-27
-25
-25
-23
-22
-17
-16
-15
-13
-13
-8
-11
-11
-6
-6
-8
-6
-6
-5
-4
-3
-6
-6
-7
-11
-10
-12
-19
-16
-20
-22
-21
-22
-25
-23
-25
-21
-16
-18
-16
-14
-14
-13
-10
-10
-12
-11
-6
-11
-10
-13
-4
-9
-10
-9
-8
-9
-9
-6
-8
-9
-8
-13
-7
-9
-11
-9
-9
-10
-10
-17
-14
-12
-11
-15
-10
-17
-17
-17
-15
-17
-20
-21
-19
-19
-19
-20
-20
-20
-21
-22
-21
-21
-22
-20
-22
-19
-21
-19
-22
-19
-22
-21
-18
-16
-21
-21
-22
-20
-22
-20
-19
-19
-19
-21
-19
-19
-21
-17
-19
-10
-7
-6
0
-3
-6
-7
-11
-11
-14
-12
-13
-10
-10
-13
-15
-11
-14
-10
-9
-12
-12
-17
-21
-23
-22
-10
6
31
61
105
158
216
270
268
211
135
66
18
-15
-28
-37
-43
-41
-43
-40
-44
-44
-45
-43
-44
-44
-42
-40
-42
-37
-39
-38
-37
-37
-35
-32
-33
-28
-28
-25
-25
-20
-21
-20
-17
-12
-12
-10
-11
-8
-9
-10
-6
-7
-11
-9
-10
-12
-10
-14
-15
-17
-20
-21
-25
-24
-24
-23
-24
-26
-28
-27
-22
-25
-21
-19
-19
-16
-16
-14
-12
-10
-9
-7
-6
-8
-11
-8
-8
-11
-10
-11
-7
-7
-5
-3
-9
-12
-13
-7
-9
-12
-10
-11
-10
-11
-11
-13
-14
-11
-15
-17
-19
-16
-18
-15
-19
-21
-16
-18
-18
-18
-16
-16
-16
-14
-15
-16
-20
-20
-21
-20
-21
-19
-20
-16
-14
-17
-17
-19
-19
-16
-16
-17
-15
-16
-19
-21
-18
-14
-20
-17
-17
-17
-13
-13
-14
-10
-10
-8
-6
-4
-2
-5
1
-3
-3
-6
-8
-7
-10
-9
-12
-12
-15
-12
-14
-14
-14
-11
-11
-19
-22
-29
-23
-12
8
35
74
119
178
246
293
279
211
126
53
9
-22
-37
-43
-46
-49
-49
-51
-48
-49
-46
-42
-43
-44
-42
-42
-43
-39
-39
-36
-36
-35
-35
-33
-32
-29
-26
-25
-23
-26
-20
-16
-15
-15
-17
-16
-13
-14
-12
-12
-8
-7
-9
-7
-8
-11
-11
-11
-11
-13
-11
-8
-18
-23
-20
-22
-20
-20
-20
-18
-17
-19
-17
-14
-12
-10
-7
-13
-13
-13
-15
-13
-10
-17
-15
-15
-14
-13
-13
-10
-14
-10
-11
-13
-13
-10
-10
-13
-13
-13
-14
-12
-12
-12
-15
-13
-14
-16
-18
-19
-18
-18
-20
-17
-19
-17
-18
-18
-20
-18
-17
-18
-21
-21
-16
-15
-16
-17
-17
-17
-16
-15
-15
-14
-16
-16
-13
-13
-14
-15
-17
-18
-16
-20
-19
-15
-16
-13
-12
-16
-14
-12
-8
-7
-3
0
-1
-1
-1
-7
-8
-7
-10
-12
-13
-11
-13
-14
-13
-13
-15
-15
-13
-14
-21
-23
-29
-30
-22
-10
15
45
91
143
205
267
295
256
171
93
32
-11
-37
-49
-55
-58
-56
-58
-56
-54
-55
-54
-54
-52
-53
-53
-48
-48
-48
-47
-42
-45
-39
-36
-38
-35
-35
-29
-30
-27
-27
-24
-21
-24
-22
-21
-21
-16
-19
-15
-11
-11
-9
-6
-8
-5
-10
-9
-9
-10
-9
-12
-13
-14
-14
-12
-14
-14
-13
-14
-13
-12
-13
-10
-13
-11
-10
-12
-13
-13
-16
-10
-15
-17
-16
-17
-16
-14
-15
-16
-16
-12
-9
-13
-12
-17
-10
-14
-10
-11
-12
-13
-13
-12
-12
-14
-12
-12
-14
-15
-15
-16
-16
-17
-16
-16
-17
-16
-16
-18
-16
-15
-17
-18
-18
-16
-11
-14
-15
-15
-13
-14
-12
-13
-8
-12
-13
-13
-11
-8
-13
-12
-14
-15
-14
-15
-15
-10
-9
-7
-2
-1
2
6
5
9
13
11
8
10
4
4
4
2
2
1
2
4
1
5
2
1
4
-2
-7
-14
-14
-14
-1
19
43
80
128
181
239
283
267
205
130
72
28
0
-15
-25
-32
-37
-39
-36
-35
-39
-41
-33
-36
-35
-36
-33
-37
-33
-33
-31
-30
-29
-23
-22
-24
-22
-22
-17
-18
-15
-16
-13
-11
-13
-9
-9
-7
-6
-6
-4
-6
-3
-6
-5
-5
-5
-3
0
-5
-9
-9
-11
-13
-16
-13
-13
-18
-14
-14
-9
-9
-11
-7
-6
-8
-10
-6
-9
-9
-9
-8
-9
-10
-9
-7
-8
-9
-9
-9
-7
-10
-10
-7
-8
-10
-11
-9
-12
-13
-14
-11
-12
-15
-14
-16
-14
-15
-13
-14
-16
-18
-16
-19
-20
-16
-16
-16
-19
-20
-23
-21
-18
-24
-23
-23
-20
-18
-20
-21
-18
-21
-22
-24
-20
-23
-22
-24
-23
-24
-24
-20
-18
-20
-17
-14
-11
-15
-10
-8
-5
-6
-6
-11
-12
-12
-17
-16
-17
-16
-17
-19
-16
-19
-18
-21
-18
-19
-24
-28
-30
-29
-23
1
31
68
123
174
231
266
241
177
99
38
-2
-26
-39
-49
-47
-49
-48
-49
-50
-48
-49
-50
-49
-45
-46
-45
-42
-41
-40
-41
-40
-36
-37
-40
-33
-28
-27
-31
-31
-29
-26
-23
-21
-20
-17
-17
-15
-15
-13
-11
-6
-8
-12
-11
-13
-9
-9
-12
-12
-12
-13
-11
-14
-13
-13
-13
-12
-11
-14
-12
-15
-15
-16
-10
-12
-11
-11
-13
-14
-17
-16
-18
-19
-17
-18
-17
-15
-16
-17
-20
-19
-22
-22
-21
-19
-21
-18
-21
-19
-23
-23
-23
-23
-22
-22
-19
-18
-17
-18
-21
-20
-21
-22
-23
-27
-25
-25
-21
-21
-21
-23
-22
-23
-21
-25
-23
-22
-21
-22
-22
-24
-23
-23
-21
-19
-18
-15
-14
-12
-10
-9
-9
-11
-10
-13
-13
-14
-14
-15
-16
-15
-18
-15
-18
-15
-14
-15
-18
-19
-22
-27
-30
-24
-15
4
30
70
113
168
219
246
218
149
76
25
-10
-30
-38
-45
-42
-44
-46
-42
-43
-41
-40
-41
-39
-40
-36
-38
-34
-34
-35
-32
-32
-30
-29
-30
-25
-24
-23
-20
-22
-19
-17
-17
-17
-13
-8
-6
-7
-6
-5
-4
-2
2
-3
2
3
4
3
1
-2
2
-4
-2
-3
0
-8
-5
-5
0
-6
-5
-2
-7
-6
-7
-10
-11
-14
-11
-15
-18
-17
-16
-15
-18
-16
-16
-17
-15
-15
-16
-16
-14
-14
-17
-18
-14
-14
-18
-19
-16
-19
-18
-19
-18
-18
-21
-20
-18
-18
-19
-18
-19
-19
-16
-19
-16
-16
-15
-16
-21
-20
-18
-20
-21
-20
-20
-21
-18
-18
-16
-13
-11
-10
-6
0
-3
2
3
0
-4
-4
-6
-8
-9
-9
-7
-9
-8
-9
-10
-10
-9
-7
-11
-11
-13
-21
-24
-24
-13
7
36
68
113
164
220
249
227
163
94
41
3
-20
-30
-37
-42
-41
-37
-43
-41
-37
-41
-42
-38
-38
-38
-35
-35
-36
-33
-29
-28
-29
-27
-29
-24
-26
-24
-24
-21
-21
-19
-17
-14
-13
-11
-7
-7
-7
-8
-5
-4
-4
-4
-3
-5
-4
-2
-5
-8
-5
-8
-12
-7
-10
-10
-8
-15
-12
-11
-9
-11
-11
-11
-9
-10
-11
-12
-15
-10
-16
-14
-15
-18
-15
-19
-16
-14
-18
-17
-17
-18
-16
-16
-18
-15
-16
-21
-18
-17
-17
-14
-19
-20
-16
-18
-19
-20
-18
-21
-20
-21
-20
-21
-22
-22
-24
-23
-22
-22
-22
-23
-24
-24
-25
-20
-25
-20
-21
-17
-15
-13
-9
-4
-1
-5
-4
-5
-8
-11
-12
-15
-15
-14
-12
-11
-13
-7
-11
-13
-12
-11
-12
-18
-18
-19
-13
3
24
60
101
149
202
250
252
201
131
68
17
-13
-25
-34
-39
-43
-41
-44
-43
-45
-47
-44
-45
-42
-40
-42
-43
-39
-37
-33
-32
-33
-32
-29
-28
-27
-25
-21
-21
-18
-19
-15
-14
-14
-13
-10
-7
-10
-7
-5
-3
0
-2
-4
-3
-5
-7
-8
-9
-9
-11
-11
-11
-8
-11
-11
-9
-15
-15
-9
-13
-13
-11
-8
-11
-11
-12
-10
-11
-15
-11
-12
-10
-11
-15
-12
-12
-13
-13
-13
-15
-15
-12
-15
-15
-13
-14
-16
-19
-15
-21
-18
-21
-18
-21
-17
-21
-16
-17
-20
-19
-17
-20
-21
-21
-20
-22
-21
-23
-23
-23
-25
-23
-25
-24
-22
-23
-20
-13
-12
-8
-9
-5
-4
-4
-8
-7
-11
-15
-14
-16
-17
-17
-14
-14
-15
-17
-15
-15
-15
-16
-18
-23
-28
-20
-2
18
54
92
141
195
242
251
206
133
68
15
-14
-30
-38
-43
-46
-43
-42
-45
-46
-47
-46
-45
-44
-42
-43
-41
-41
-39
-37
-36
-36
-39
-32
-33
-31
-28
-27
-24
-22
-24
-20
-17
-19
-15
-12
-14
-11
-13
-9
-9
-10
-10
-8
-9
-11
-10
-8
-9
-10
-11
-12
-15
-14
-12
-13
-10
-10
-10
-9
-8
-6
-9
-10
-11
-10
-12
-16
-12
-14
-16
-15
-20
-23
-20
-21
-21
-21
-20
-20
-20
-21
-20
-21
-19
-18
-21
-21
-20
-21
-20
-20
-22
-20
-21
-25
-23
-22
-23
-22
-25
-27
-24
-25
-27
-29
-26
-22
-24
-23
-23
-26
-24
-27
-22
-23
-24
-20
-18
-15
-12
-9
-9
-7
-10
-8
-11
-15
-17
-16
-17
-19
-18
-15
-15
-17
-13
-18
-15
-16
-21
-25
-27
-22
-15
1
21
54
95
140
192
234
232
174
100
40
-4
-30
-46
-48
-50
-49
-50
-47
-49
-48
-42
-41
-43
-41
-41
-38
-34
-36
-35
-36
-28
-31
-28
-27
-25
-25
-25
-22
-23
-18
-17
-18
-17
-13
-10
-9
-7
-8
-4
-3
-4
-3
0
0
-1
-3
-1
1
0
-3
-5
1
2
2
3
3
4
7
6
5
4
4
4
-1
-4
-3
-7
-11
-11
-13
-15
-15
-17
-15
-16
-19
-21
-18
-19
-17
-15
-19
-17
-16
-18
-17
-20
-18
-17
-16
-21
-21
-16
-18
-16
-21
-20
-19
-21
-20
-20
-18
-21
-22
-19
-21
-22
-22
-19
-21
-19
-21
-21
-21
-17
-16
-12
-11
-10
-8
-5
-5
-5
-6
-10
-10
-11
-11
-13
-12
-13
-11
-12
-12
-12
-9
-9
-8
-10
-12
-15
-14
-12
5
21
51
88
129
166
209
227
188
120
54
7
-21
-37
-41
-44
-40
-38
-36
-37
-36
-36
-33
-33
-30
-32
-29
-30
-27
-27
-22
-25
-27
-20
-22
-20
-19
-19
-18
-15
-16
-12
-14
-11
-7
-9
-6
-3
-3
-2
-2
2
-1
3
-1
2
3
3
3
-2
4
5
1
3
4
-1
4
4
3
4
5
5
4
3
1
0
1
0
-4
-4
-9
-8
-6
-14
-14
-16
-13
-15
-16
-17
-12
-13
-18
-12
-15
-17
-21
-17
-13
-16
-17
-17
-19
-19
-17
-19
-19
-19
-19
-20
-20
-23
-22
-22
-22
-24
-20
-23
-21
-20
-24
-22
-19
-21
-18
-17
-14
-8
-9
-3
-4
-6
-6
-9
-9
-10
-14
-12
-13
-13
-15
-16
-15
-14
-17
-14
-11
-17
-15
-16
-21
-13
1
19
54
88
128
176
217
226
182
117
42
4
-21
-36
-43
-44
-43
-42
-42
-42
-42
-44
-43
-39
-38
-40
-35
-35
-33
-32
-35
-30
-29
-27
-28
-28
-22
-23
-25
-19
-21
-21
-19
-13
-12
-13
-11
-11
-8
-9
-4
-4
-4
-9
-5
-8
-6
-9
-11
-9
-14
-13
-13
-14
-16
-14
-15
-14
-13
-15
-13
-11
-11
-9
-12
-11
-11
-9
-12
-13
-12
-12
-12
-14
-15
-11
-14
-13
-16
-19
-16
-15
-15
-15
-17
-17
-17
-14
-16
-16
-16
-17
-16
-19
-19
-20
-19
-18
-16
-17
-18
-19
-20
-21
-20
-21
-20
-21
-20
-18
-21
-21
-24
-20
-24
-20
-19
-14
-14
-12
-7
-5
-6
-6
-5
-11
-13
-13
-13
-19
-16
-15
-15
-15
-17
-15
-13
-16
-15
-13
-19
-21
-19
-15
4
25
56
93
137
187
229
237
185
115
48
6
-24
-36
-41
-47
-45
-47
-45
-43
-43
-44
-41
-38
-41
-35
-39
-35
-35
-33
-34
-32
-34
-31
-30
-28
-26
-23
-19
-18
-20
-18
-16
-13
-15
-12
-13
-11
-10
-8
-10
-10
-8
-6
-4
-8
-8
-8
-8
-7
-9
-12
-13
-11
-9
-13
-6
-9
-8
-7
-8
-6
-5
-5
-9
-8
-10
-8
-10
-13
-12
-16
-14
-17
-19
-19
-19
-18
-16
-17
-18
-16
-19
-16
-18
-22
-18
-19
-19
-16
-18
-18
-18
-23
-19
-21
-21
-23
-22
-23
-23
-23
-20
-22
-23
-20
-23
-22
-23
-25
-23
-23
-21
-22
-23
-25
-26
-24
-22
-25
-21
-13
-13
-13
-12
-12
-12
-15
-16
-17
-17
-17
-18
-19
-15
-17
-16
-18
-14
-13
-13
-15
-19
-20
-21
-12
4
30
60
98
145
193
230
220
158
85
26
-15
-32
-43
-46
-48
-46
-46
-44
-42
-41
-40
-39
-38
-37
-39
-33
-33
-32
-32
-32
-31
-30
-27
-24
-28
-25
-24
-20
-18
-18
-16
-17
-13
-12
-14
-13
-8
-9
-5
-4
-6
-3
-3
-3
-4
-5
-5
-5
-3
-3
-5
2
-3
1
1
4
1
3
6
1
4
1
1
2
-5
-4
-8
-10
-13
-16
-12
-13
-20
-16
-18
-18
-19
-16
-20
-17
-16
-19
-14
-17
-20
-16
-21
-13
-18
-18
-18
-20
-18
-14
-17
-16
-18
-19
-21
-19
-20
-20
-21
-23
-22
-21
-21
-21
-23
-23
-22
-22
-23
-23
-25
-27
-24
-23
-22
-18
-18
-15
-12
-10
-9
-3
-4
-2
-7
-6
-10
-12
-12
-12
-13
-12
-14
-7
-10
-16
-10
-11
-10
-12
-13
-17
-16
-10
7
30
54
91
132
176
217
212
163
91
37
0
-21
-35
-41
-39
-39
-38
-40
-36
-35
-37
-34
-35
-33
-33
-28
-29
-27
-29
-24
-24
-22
-24
-22
-25
-20
-22
-23
-19
-18
-16
-13
-15
-13
-12
-11
-10
-9
-6
-4
-5
-4
-5
-4
-6
0
-2
-3
-9
-5
-6
-4
-9
-5
-6
-8
-3
-5
-4
-4
-7
-7
-5
-6
-7
-6
-8
-9
-9
-8
-13
-12
-16
-16
-13
-16
-17
-16
-16
-16
-16
-17
-14
-15
-16
-17
-17
-18
-17
-20
-21
-21
-16
-19
-19
-19
-22
-21
-19
-21
-20
-24
-19
-20
-23
-22
-20
-21
-22
-19
-20
-20
-23
-23
-21
-21
-23
-22
-23
-21
-21
-21
-16
-19
-14
-14
-8
-8
-2
-3
-2
-6
-6
-8
-13
-13
-12
-13
-15
-10
-13
-12
-11
-11
-11
-13
-14
-14
-18
-18
-13
0
23
46
83
119
165
212
229
189
119
58
16
-19
-33
-33
-40
-41
-41
-38
-39
-39
-37
-37
-38
-34
-36
-33
-35
-32
-33
-29
-27
-24
-24
-25
-22
-23
-25
-21
-20
-19
-15
-13
-12
-12
-8
-8
-6
-7
-5
1
-5
0
1
-2
-6
-5
-4
-5
-6
-8
-7
-12
-14
-13
-13
-13
-9
-9
-8
-9
-7
-9
-8
-6
-8
-4
-8
-10
-9
-10
-12
-11
-11
-13
-12
-9
-13
-15
-11
-14
-14
-15
-15
-15
-16
-14
-15
-17
-15
-19
-14
-19
-19
-21
-16
-19
-18
-19
-20
-21
-20
-23
-19
-21
-21
-20
-20
-17
-18
-17
-16
-19
-16
-16
-18
-18
-19
-14
-17
-16
-19
-15
-13
-18
-15
-19
-17
-16
-13
-11
-8
-9
-6
-1
2
7
4
9
3
2
0
-3
-4
-2
-1
-6
-5
-1
-2
-5
-3
-3
-5
-7
-13
-12
-13
-2
12
47
71
107
154
206
235
218
156
89
35
1
-21
-28
-38
-34
-37
-35
-36
-34
-33
-35
-36
-37
-28
-33
-31
-27
-31
-27
-24
-25
-22
-20
-20
-23
-23
-16
-18
-13
-14
-13
-10
-12
-9
-9
-7
-5
0
-3
-1
-2
0
-2
-2
-2
-6
0
-5
-6
-9
-8
-6
-5
-7
-6
-6
-5
-4
-1
0
-3
-1
-3
-1
-2
-7
-4
-8
-10
-10
-12
-14
-12
-17
-14
-16
-17
-19
-14
-16
-19
-19
-20
-18
-25
-23
-20
-22
-24
-22
-20
-21
-24
-25
-24
-22
-21
-21
-28
-24
-23
-27
-25
-23
-29
-24
-25
-25
-23
-24
-27
-28
-26
-22
-24
-23
-23
-23
-25
-20
-22
-21
-23
-24
-23
-24
-28
-26
-26
-26
-21
-20
-22
-22
-17
-18
-12
-6
-5
-5
-8
-8
-12
-13
-14
-13
-13
-15
-15
-14
-17
-19
-14
-19
-19
-19
-21
-23
-23
-15
-5
13
41
74
114
166
213
212
163
95
35
-8
-27
-38
-44
-42
-43
-40
-40
-38
-36
-38
-38
-38
-36
-36
-34
-28
-30
-29
-28
-26
-25
-22
-23
-23
-19
-18
-16
-19
-15
-14
-13
-9
-13
-10
-6
-7
-5
-2
-3
-3
-3
-3
-4
-2
3
-2
0
-1
0
1
2
4
3
2
3
4
3
7
6
8
3
4
-5
-5
-4
-7
-13
-12
-13
-20
-18
-20
-20
-25
-23
-25
-25
-23
-25
-25
-26
-22
-28
-27
-24
-26
-24
-27
-28
-26
-24
-27
-25
-26
-24
-27
-25
-23
-24
-26
-24
-25
-28
-26
-24
-26
-25
-20
-25
-24
-24
-21
-23
-23
-23
-22
-23
-21
-18
-21
-19
-20
-21
-19
-16
-21
-21
-25
-23
-24
-20
-24
-20
-18
-16
-16
-12
-6
-7
-5
-3
-3
6
0
-6
-6
-7
-7
-9
-9
-10
-9
-10
-9
-12
-7
-11
-10
-12
-18
-16
-17
-11
1
19
47
83
128
176
215
212
161
91
36
2
-21
-33
-33
-33
-38
-35
-32
-33
-32
-31
-32
-30
-29
-28
-29
-24
-26
-21
-21
-23
-19
-21
-18
-17
-15
-13
-12
-9
-11
-9
-8
-9
-7
-3
1
-5
1
3
3
5
7
4
2
5
4
3
3
-1
-1
-3
-4
-2
-5
-3
-4
-4
-4
2
-2
0
0
1
-1
-2
-2
-9
-8
-7
-6
-10
-8
-10
-10
-16
-12
-13
-14
-14
-14
-14
-15
-14
-15
-15
-12
-14
-15
-12
-17
-14
-16
-17
-15
-15
-17
-14
-14
-17
-14
-15
-16
-16
-16
-18
-17
-17
-16
-17
-21
-14
-16
-19
-15
-15
-17
-14
-17
-15
-12
-14
-10
-14
-12
-18
-19
-19
-19
-16
-18
-19
-16
-18
-17
-15
-10
-11
-6
-3
3
5
6
6
4
-2
0
-4
-5
-8
-8
-10
-7
-8
-11
-9
-9
-8
-11
-14
-15
-20
-23
-13
6
34
64
104
150
206
238
221
163
97
42
4
-21
-26
-35
-37
-37
-35
-36
-36
-40
-39
-37
-38
-36
-35
-33
-31
-32
-28
-28
-27
-27
-27
-23
-23
-25
-23
-21
-19
-19
-18
-13
-15
-9
-11
-11
-11
-9
-11
-6
-4
-6
-7
-8
-5
-8
-6
-9
-8
-8
-12
-14
-14
-12
-16
-18
-19
-18
-15
-16
-13
-16
-14
-12
-14
-12
-15
-12
-15
-14
-17
-22
-20
-19
-18
-19
-19
-20
-20
-16
-19
-19
-16
-16
-18
-18
-16
-18
-17
-18
-21
-21
-20
-25
-20
-21
-23
-23
-22
-23
-22
-25
-23
-25
-25
-23
-20
-18
-21
-21
-19
-21
-21
-21
-20
-21
-20
-18
-19
-20
-20
-16
-23
-18
-20
-17
-17
-17
-21
-20
-19
-20
-18
-15
-13
-9
-6
0
-2
2
0
-5
-6
-10
-11
-15
-11
-12
-13
-16
-12
-14
-17
-14
-13
-15
-15
-23
-25
-25
-16
4
24
60
99
147
204
239
226
161
91
27
-5
-20
-33
-41
-42
-43
-43
-45
-38
-41
-40
-39
-39
-36
-34
-34
-32
-35
-29
-30
-33
-29
-26
-29
-24
-26
-23
-25
-18
-21
-18
-15
-13
-11
-10
-12
-8
-7
-5
-8
-8
-7
-7
-6
-6
-6
-8
-7
-9
-9
-9
-9
-9
-13
-8
-7
-9
-8
-6
-5
-4
-6
-3
-5
-4
-4
-9
-8
-8
-10
-10
-12
-13
-12
-15
-14
-15
-17
-17
-15
-15
-15
-18
-19
-16
-18
-18
-18
-20
-18
-20
-18
-19
-21
-18
-19
-18
-20
-22
-21
-21
-21
-23
-22
-21
-23
-21
-22
-21
-23
-21
-22
-19
-21
-22
-18
-21
-21
-21
-21
-22
-21
-25
-25
-24
-23
-18
-20
-23
-19
-17
-12
-11
-6
-5
-4
-5
-7
-8
-10
-11
-10
-10
-11
-10
-11
-10
-10
-10
-10
-10
-13
-15
-20
-22
-19
-8
15
35
70
108
153
204
232
199
129
63
13
-15
-33
-39
-40
-41
-37
-40
-37
-39
-38
-37
-35
-35
-32
-34
-33
-28
-29
-29
-27
-27
-22
-25
-21
-21
-21
-16
-17
-17
-12
-14
-10
-13
-7
-9
-7
-5
-6
-6
-2
-2
-1
-3
2
2
-1
0
0
-5
-3
-4
-2
0
1
-1
0
0
0
5
2
0
-2
-1
-3
-4
-9
-6
-9
-9
-8
-12
-14
-17
-19
-19
-20
-20
-16
-17
-16
-19
-16
-17
-17
-16
-19
-17
-21
-16
-16
-17
-18
-16
-18
-18
-16
-19
-19
-17
-18
-19
-18
-20
-20
-22
-18
-20
-23
-19
-21
-20
-16
-16
-18
-17
-20
-19
-20
-21
-20
-22
-20
-19
-21
-18
-18
-15
-11
-12
-9
-3
-2
3
0
0
-5
-6
-11
-12
-11
-14
-11
-12
-10
-14
-10
-11
-9
-11
-13
-15
-20
-17
-12
7
25
57
95
135
185
220
213
160
93
40
3
-23
-32
-37
-40
-39
-39
-35
-36
-34
-36
-35
-36
-35
-35
-33
-31
-31
-28
-24
-26
-26
-25
-24
-26
-21
-18
-19
-20
-17
-14
-11
-13
-9
-11
-9
-9
-6
-3
-4
-5
-5
-2
-2
-2
0
-2
-3
-3
-4
-6
-7
-6
-6
-6
-8
-9
-12
-11
-7
-6
-10
-10
-10
-13
-12
-13
-13
-14
-14
-17
-17
-17
-17
-17
-19
-19
-18
-21
-19
-18
-20
-19
-17
-15
-14
-17
-21
-16
-17
-15
-17
-16
-17
-18
-19
-18
-19
-21
-20
-21
-20
-16
-20
-21
-19
-20
-21
-20
-20
-17
-17
-19
-16
-16
-17
-16
-18
-20
-19
-20
-23
-22
-21
-18
-19
-16
-19
-11
-13
-8
-4
3
3
2
-3
-5
-9
-3
-8
-9
-9
-7
-10
-12
-9
-11
-8
-8
-9
-13
-17
-19
-16
-6
10
32
63
102
145
199
236
221
163
93
40
0
-17
-35
-37
-39
-37
-39
-43
-38
-39
-40
-38
-41
-38
-41
-36
-34
-32
-33
-31
-33
-29
-27
-24
-26
-24
-23
-23
-19
-22
-19
-17
-17
-11
-12
-8
-8
-8
-4
-4
-4
-4
-5
-3
-4
-5
-8
-7
-3
-7
-8
-10
-13
-12
-9
-10
-9
-8
-6
-5
-3
-5
-4
-6
-6
-6
-6
-8
-9
-11
-13
-14
-11
-15
-16
-14
-14
-14
-16
-13
-15
-16
-16
-14
-14
-15
-15
-14
-13
-12
-14
-15
-16
-17
-19
-17
-19
-16
-20
-20
-19
-18
-20
-20
-17
-19
-20
-19
-21
-16
-22
-19
-21
-19
-17
-13
-16
-20
-21
-17
-18
-20
-21
-21
-21
-21
-23
-22
-16
-16
-15
-13
-7
-5
-2
2
-2
-5
-7
-9
-10
-12
-14
-15
-12
-11
-16
-13
-16
-14
-14
-14
-14
-17
-21
-18
-10
9
31
62
104
148
203
244
228
167
92
32
-5
-31
-41
-43
-47
-47
-47
-49
-46
-43
-45
-42
-45
-43
-42
-41
-44
-40
-39
-37
-33
-31
-38
-31
-33
-31
-30
-29
-25
-29
-22
-25
-21
-19
-16
-17
-14
-17
-11
-12
-11
-9
-10
-9
-9
-8
-10
-8
-12
-11
-14
-12
-14
-13
-12
-7
-9
-5
-6
-4
-3
0
0
-6
-7
-7
-8
-12
-11
-13
-12
-17
-18
-19
-18
-18
-17
-19
-21
-18
-19
-21
-17
-20
-20
-21
-20
-17
-18
-19
-20
-18
-19
-21
-21
-18
-20
-22
-21
-20
-22
-20
-22
-20
-22
-22
-18
-21
-18
-18
-21
-18
-19
-21
-20
-17
-17
-18
-19
-18
-23
-21
-21
-20
-20
-21
-20
-20
-16
-17
-11
-10
-7
-4
-5
-2
-3
-1
-5
-6
-8
-5
-8
-8
-9
-10
-12
-9
-10
-9
-9
-11
-12
-14
-18
-17
-9
7
29
68
100
149
202
243
231
169
93
33
-9
-25
-37
-40
-42
-40
-41
-41
-36
-32
-35
-34
-33
-32
-30
-27
-26
-25
-22
-18
-23
-18
-18
-19
-16
-15
-17
-13
-13
-13
-11
-8
-8
-6
-5
-3
-6
-2
-3
-2
-2
-3
-1
0
-1
0
-1
3
5
4
2
2
6
6
7
10
9
10
11
12
8
8
8
7
7
4
1
-3
-8
-11
-11
-13
-14
-15
-17
-18
-17
-16
-19
-23
-20
-19
-18
-20
-17
-19
-16
-22
-20
-19
-17
-25
-20
-22
-22
-22
-24
-21
-20
-19
-20
-21
-20
-19
-21
-20
-20
-21
-23
-19
-21
-20
-21
-23
-17
-19
-17
-19
-19
-17
-18
-21
-16
-19
-16
-18
-14
-17
-16
-14
-13
-12
-9
-5
-4
4
5
4
2
-8
-10
-9
-16
-13
-12
-13
-10
-8
-6
-12
-10
-10
-14
-17
-21
-17
-10
0
24
54
86
131
185
228
233
184
116
52
8
-19
-30
-36
-38
-40
-38
-40
-40
-38
-37
-36
-36
-34
-32
-31
-30
-32
-29
-30
-28
-26
-25
-27
-23
-20
-18
-18
-17
-17
-9
-11
-10
-8
-8
-6
-7
-6
-3
1
4
1
2
0
1
0
2
-3
0
-2
-3
-3
-6
-13
-8
-6
-6
-8
-8
-6
-4
-2
-2
-7
-7
-4
-2
-8
-7
-9
-13
-11
-13
-12
-17
-13
-13
-13
-12
-15
-18
-14
-13
-15
-16
-15
-15
-15
-18
-16
-19
-20
-18
-15
-22
-18
-19
-20
-22
-16
-16
-19
-17
-12
-14
-14
-12
-10
-8
-11
-5
-4
-10
-5
-5
-6
-4
-2
0
-3
-5
-5
-4
-6
-5
-2
-3
-3
-4
-5
1
4
5
8
12
15
13
17
14
13
14
9
6
4
4
1
3
2
-1
2
4
3
2
2
2
-5
-11
-6
0
14
37
65
105
152
204
247
241
185
115
49
12
-20
-28
-33
-38
-36
-36
-40
-41
-38
-38
-43
-39
-38
-40
-37
-34
-36
-36
-37
-35
-32
-31
-30
-31
-26
-23
-27
-23
-22
-22
-20
-18
-15
-17
-16
-17
-17
-14
-15
-13
-14
-11
-11
-12
-11
-16
-16
-14
-15
-18
-19
-21
-21
-18
-21
-17
-21
-17
-19
-17
-18
-16
-18
-16
-17
-16
-20
-20
-18
-16
-20
-21
-23
-24
-23
-24
-24
-20
-23
-25
-22
-24
-23
-23
-24
-26
-24
-26
-27
-28
-25
-25
-24
-28
-27
-28
-26
-28
-27
-28
-27
-28
-28
-28
-29
-27
-25
-26
-27
-26
-26
-26
-27
-25
-28
-25
-28
-27
-27
-24
-28
-25
-26
-24
-25
-25
-27
-27
-25
-29
-25
-29
-27
-27
-31
-27
-26
-23
-21
-16
-16
-11
-8
-4
-8
-8
-8
-14
-15
-17
-15
-16
-18
-19
-15
-16
-17
-16
-18
-18
-24
-26
-30
-29
-24
-7
22
53
96
142
200
236
226
159
89
32
-6
-26
-38
-48
-50
-47
-49
-51
-49
-48
-53
-49
-49
-48
-45
-40
-44
-42
-41
-41
-39
-36
-35
-32
-33
-28
-27
-29
-27
-23
-23
-20
-21
-18
-14
-13
-17
-14
-16
-15
-14
-13
-12
-9
-12
-13
-14
-12
-11
-16
-17
-13
-15
-20
-17
-17
-14
-12
-14
-14
-8
-10
-9
-9
-10
-9
-11
-9
-12
-12
-14
-14
-15
-14
-14
-14
-15
-15
-15
-15
-13
-17
-17
-15
-16
-15
-17
-19
-15
-20
-17
-20
-20
-22
-22
-21
-17
-18
-19
-20
-21
-20
-19
-18
-18
-16
-16
-17
-20
-17
-19
-13
-16
-15
-16
-18
-16
-16
-17
-17
-13
-15
-15
-16
-13
-14
-12
-13
-13
-12
-16
-8
-15
-14
-15
-17
-17
-15
-13
-11
-13
-12
-5
0
-4
4
3
3
3
2
-2
1
-7
-5
-7
-4
-9
-7
-7
-7
-7
-5
-6
-6
-10
-14
-17
-15
-9
12
41
71
116
166
219
251
219
150
79
25
-4
-25
-33
-37
-35
-33
-37
-32
-34
-33
-33
-30
-30
-33
-31
-33
-29
-31
-28
-27
-22
-20
-18
-19
-14
-15
-13
-12
-13
-10
-9
-9
-8
-5
-5
-1
0
3
-2
1
-1
0
0
0
4
-3
-1
0
-2
2
-1
1
-4
-1
-3
1
4
7
7
7
8
6
6
4
1
1
0
-3
0
-5
-8
-9
-10
-11
-13
-10
-12
-12
-13
-14
-15
-15
-18
-15
-17
-14
-15
-12
-17
-15
-14
-14
-19
-15
-14
-16
-16
-15
-16
-16
-15
-19
-20
-18
-16
-19
-18
-20
-23
-22
-21
-23
-20
-20
-21
-21
-22
-19
-18
-21
-21
-16
-16
-16
-21
-16
-14
-16
-17
-14
-15
-19
-17
-19
-18
-21
-21
-19
-20
-18
-17
-18
-16
-13
-6
-4
-2
-2
3
3
0
-1
-2
-11
-9
-9
-8
-11
-15
-11
-10
-8
-7
-8
-10
-13
-16
-19
-18
-10
3
24
55
93
141
196
231
222
164
93
38
4
-21
-29
-37
-36
-37
-36
-38
-39
-41
-37
-34
-35
-33
-32
-32
-31
-33
-32
-28
-28
-26
-26
-21
-26
-21
-24
-21
-16
-18
-16
-14
-12
-8
-11
-9
-9
-8
-6
-7
-4
-5
-7
-1
-6
-4
-5
-7
-8
-10
-9
-9
-9
-12
-12
-10
-8
-13
-10
-9
-10
-9
-8
-10
-10
-10
-13
-12
-12
-8
-15
-14
-16
-17
-19
-13
-16
-16
-15
-19
-17
-17
-16
-15
-14
-16
-15
-21
-15
-16
-16
-16
-16
-19
-21
-19
-16
-21
-18
-20
-19
-20
-17
-18
-19
-19
-16
-21
-18
-17
-19
-21
-18
-14
-16
-16
-16
-17
-17
-19
-15
-15
-15
-18
-17
-21
-16
-17
-16
-16
-16
-17
-17
-16
-19
-12
-17
-18
-17
-19
-17
-17
-16
-17
-16
-16
-11
-9
-10
-6
-5
-3
4
1
-5
-1
-5
-4
-8
-11
-11
-13
-9
-9
-10
-11
-10
-10
-7
-12
-16
-18
-17
-17
2
18
49
84
127
181
227
241
198
130
65
18
-14
-24
-33
-33
-38
-35
-38
-39
-37
-37
-37
-33
-34
-32
-34
-30
-30
-30
-27
-26
-24
-22
-23
-23
-22
-20
-17
-17
-14
-14
-14
-17
-13
-11
-6
-9
-7
-7
-7
-7
-5
-1
-5
-5
-5
-4
-10
-9
-11
-12
-9
-9
-11
-11
-13
-12
-12
-13
-10
-10
-9
-8
-9
-5
-8
-11
-12
-13
-14
-12
-15
-17
-15
-17
-15
-16
-18
-14
-17
-19
-16
-16
-13
-13
-14
-18
-14
-16
-15
-16
-14
-16
-16
-16
-17
-16
-18
-17
-17
-18
-19
-18
-20
-20
-19
-19
-20
-20
-25
-20
-16
-18
-18
-17
-16
-16
-13
-16
-14
-17
-18
-15
-15
-17
-14
-16
-18
-16
-14
-16
-17
-16
-16
-15
-15
-14
-15
-13
-12
-13
-13
-10
-12
-16
-14
-14
-15
-14
-14
-15
-17
-17
-15
-12
-14
-13
-8
-5
-1
-2
3
4
6
0
-7
-6
-6
-9
-9
-11
-12
-10
-13
-11
-13
-8
-13
-16
-22
-25
-27
-18
-12
11
39
75
121
178
232
254
216
143
76
24
-9
-25
-36
-38
-41
-45
-42
-45
-45
-45
-47
-42
-40
-46
-40
-41
-35
-37
-35
-36
-32
-30
-30
-30
-28
-30
-29
-25
-21
-19
-19
-19
-18
-14
-14
-14
-13
-11
-13
-8
-8
-11
-9
-6
-9
-9
-13
-11
-12
-11
-17
-17
-15
-14
-15
-17
-12
-13
-12
-15
-12
-10
-8
-7
-11
-8
-8
-10
-13
-13
-14
-11
-13
-17
-15
-16
-12
-15
-14
-16
-16
-13
-17
-16
-15
-16
-19
-18
-17
-19
-21
-16
-20
-21
-15
-18
-17
-19
-18
-18
-19
-16
-18
-17
-20
-17
-18
-18
-19
-18
-20
-19
-21
-20
-21
-16
-15
-21
-16
-19
-17
-15
-15
-16
-15
-15
-16
-17
-13
-18
-15
-13
-12
-10
-14
-11
-13
-10
-11
-8
-10
-12
-11
-11
-11
-9
-11
-14
-10
-11
-10
-10
-7
-4
-5
2
-1
4
3
4
5
4
2
-4
-7
-9
-4
-8
-9
-9
-8
-8
-7
-10
-9
-8
-17
-20
-20
-21
-14
5
29
67
109
162
215
250
232
167
85
36
-1
-23
-32
-37
-41
-41
-39
-41
-36
-37
-37
-34
-37
-33
-31
-35
-26
-25
-27
-22
-27
-23
-19
-18
-19
-21
-15
-19
-16
-12
-14
-13
-11
-13
-7
-9
-8
-7
-5
-3
-2
-2
-5
-2
-3
-5
-5
1
-4
-6
-5
-4
-6
-7
-6
-6
-7
-5
-1
-5
1
1
1
0
-2
-3
-4
-5
-10
-8
-10
-15
-14
-15
-15
-12
-17
-19
-15
-17
-16
-19
-17
-16
-16
-17
-16
-17
-17
-17
-13
-16
-16
-17
-16
-17
-17
-18
-18
-19
-18
-15
-18
-21
-21
-20
-16
-16
-16
-19
-17
-21
-16
-18
-17
-19
-18
-16
-15
-18
-16
-16
-17
-12
-14
-13
-12
-15
-14
-14
-15
-15
-13
-15
-13
-13
-11
-11
-11
-15
-15
-16
-17
-15
-14
-17
-15
-16
-13
-10
-11
-5
-5
-2
0
5
7
6
5
4
1
0
-2
-1
-3
-5
-4
-7
-9
-7
-5
-5
-6
-7
-11
-12
-20
-17
-5
11
37
73
111
164
211
234
207
143
79
27
-3
-21
-31
-35
-35
-39
-37
-40
-40
-41
-36
-40
-38
-37
-36
-32
-35
-34
-31
-32
-33
-28
-28
-27
-24
-25
-23
-23
-22
-20
-16
-14
-16
-14
-10
-12
-6
-9
-7
-7
-6
-4
-4
-6
-5
-3
-7
-6
-8
-6
-5
-9
-9
-11
-12
-10
-9
-8
-14
-8
-10
-12
-10
-12
-9
-13
-13
-16
-13
-16
-16
-18
-21
-21
-19
-19
-22
-23
-19
-17
-21
-21
-18
-15
-17
-18
-17
-18
-14
-18
-18
-19
-17
-16
-19
-19
-17
-20
-18
-16
-19
-19
-21
-19
-19
-20
-20
-18
-21
-19
-25
-22
-20
-25
-22
-22
-23
-21
-20
-21
-22
-21
-22
-21
-21
-18
-16
-20
-19
-14
-16
-21
-14
-16
-15
-16
-14
-13
-11
-14
-13
-17
-16
-19
-14
-16
-16
-12
-15
-12
-12
-9
-8
-2
-1
3
7
7
8
6
4
2
4
-2
-6
-5
-7
-7
-6
-6
-5
-4
-2
-7
-7
-12
-17
-16
-12
-4
14
39
70
112
164
213
237
208
143
82
33
-4
-21
-30
-32
-34
-36
-38
-39
-36
-37
-35
-35
-36
-37
-35
-33
-32
-32
-32
-26
-29
-28
-27
-27
-25
-23
-21
-22
-18
-18
-12
-14
-13
-8
-11
-13
-9
-9
-8
-7
-5
-3
-4
-5
-3
-4
-5
-4
-6
-8
-7
-8
-7
-10
-9
-13
-11
-13
-9
-8
-8
-9
-12
-10
-12
-8
-11
-10
-14
-14
-16
-18
-18
-16
-13
-16
-17
-17
-17
-16
-17
-17
-19
-19
-16
-18
-20
-21
-18
-14
-21
-20
-20
-19
-23
-20
-18
-22
-18
-20
-20
-19
-20
-20
-21
-21
-24
-21
-25
-22
-21
-21
-21
-17
-20
-19
-19
-21
-20
-21
-19
-20
-15
-21
-17
-16
-17
-18
-16
-17
-17
-17
-14
-17
-13
-16
-13
-12
-13
-13
-12
-10
-15
-14
-12
-12
-13
-11
-14
-14
-12
-16
-12
-11
-9
-8
-2
4
5
10
10
9
8
6
-1
0
-3
-3
-2
1
-5
-3
0
0
0
0
-5
-7
-12
-12
-8
1
19
54
82
129
181
227
246
207
145
84
36
7
-13
-20
-28
-30
-32
-31
-30
-30
-26
-29
-24
-26
-25
-25
-24
-27
-22
-22
-24
-24
-21
-20
-17
-20
-14
-18
-17
-14
-12
-11
-12
-9
-11
-9
-6
-4
-3
-3
1
-2
-3
-2
-5
-7
-5
-5
-5
-4
-9
-10
-11
-9
-13
-11
-11
-9
-12
-11
-10
-9
-12
-12
-15
-15
-15
-14
-19
-18
-21
-18
-21
-21
-23
-20
-23
-23
-23
-27
-23
-23
-22
-23
-23
-24
-22
-24
-25
-24
-22
-23
-22
-21
-23
-23
-25
-25
-23
-23
-27
-27
-26
-26
-25
-25
-25
-27
-28
-29
-24
-25
-27
-25
-25
-24
-25
-25
-20
-22
-22
-22
-22
-23
-21
-22
-22
-18
-16
-23
-21
-20
-19
-16
-20
-17
-17
-19
-21
-19
-17
-19
-21
-18
-20
-22
-18
-18
-20
-18
-15
-12
-11
-9
0
-5
-6
-1
-3
0
-2
-8
-7
-8
-9
-12
-11
-13
-11
-12
-10
-13
-8
-11
-14
-16
-22
-27
-19
-8
14
43
77
120
174
215
223
175
103
43
5
-22
-37
-47
-47
-48
-45
-43
-41
-37
-37
-34
-34
-31
-29
-30
-24
-25
-25
-27
-25
-24
-22
-22
-21
-21
-25
-22
-16
-19
-15
-13
-12
-10
-9
-10
-11
-10
-4
-9
-5
-8
-6
-8
-9
-9
-8
-10
-7
-12
-8
-8
-10
-9
-9
-9
-9
-9
-11
-7
-10
-8
-10
-15
-15
-17
-21
-19
-25
-22
-26
-26
-27
-27
-28
-30
-32
-32
-33
-34
-32
-34
-32
-35
-32
-34
-33
-33
-30
-28
-30
-29
-28
-30
-28
-31
-28
-28
-28
-29
-31
-23
-25
-27
-24
-27
-28
-26
-25
-24
-25
-28
-22
-23
-26
-22
-23
-23
-25
-21
-20
-20
-22
-20
-18
-21
-17
-16
-13
-13
-15
-17
-17
-14
-14
-13
-15
-17
-13
-13
-15
-14
-14
-12
-5
-2
0
2
3
2
-2
1
1
-6
-4
-9
-13
-10
-9
-10
-9
-11
-13
-12
-12
-16
-23
-24
-30
-30
-20
-7
20
54
97
152
212
251
228
165
94
34
-6
-25
-39
-48
-48
-52
-49
-48
-48
-54
-50
-48
-49
-49
-47
-47
-45
-46
-43
-40
-40
-43
-41
-38
-35
-36
-32
-32
-29
-30
-25
-24
-29
-25
-22
-19
-16
-18
-16
-18
-10
-12
-10
-10
-11
-15
-14
-11
-14
-14
-17
-17
-18
-19
-16
-18
-17
-14
-16
-10
-13
-8
-7
-6
-7
-4
-9
-4
-7
-7
-10
-10
-9
-9
-10
-8
-8
-10
-6
-9
-13
-8
-10
-8
-11
-6
-7
-10
-9
-10
-13
-17
-12
-11
-11
-10
-10
-13
-17
-16
-16
-15
-13
-11
-13
-10
-10
-10
-13
-13
-11
-7
-10
-7
-9
-11
-10
-8
-8
-7
-9
-6
-7
-7
-8
-8
-11
-8
-9
-4
-5
1
3
3
3
8
8
10
11
12
11
8
5
8
4
1
2
-1
3
-2
2
0
0
0
-1
1
-5
-8
-17
-19
-12
9
32
66
112
162
223
277
292
241
163
93
37
5
-19
-30
-39
-41
-35
-34
-33
-32
-29
-33
-29
-26
-29
-27
-23
-24
-24
-20
-21
-16
-16
-13
-14
-14
-9
-9
-8
-8
-5
-7
-8
-5
-2
0
5
6
5
7
8
10
12
7
6
8
9
7
5
3
6
4
3
3
1
-1
1
4
1
1
3
-1
-1
0
2
-1
1
-2
-4
-10
-9
-9
-8
-14
-12
-13
-16
-16
-14
-16
-16
-17
-14
-13
-13
-13
-13
-11
-11
-12
-10
-13
-10
-15
-14
-17
-14
-15
-15
-15
-16
-17
-18
-15
-17
-16
-17
-17
-18
-19
-20
-21
-21
-21
-19
-22
-22
-21
-20
-22
-22
-25
-24
-22
-21
-17
-19
-17
-13
-15
-11
-7
-7
0
-3
-2
-8
-5
-10
-11
-11
-13
-15
-10
-13
-14
-11
-15
-9
-11
-12
-15
-21
-33
-33
-31
-24
-3
25
70
119
180
239
273
246
176
104
46
2
-30
-39
-44
-46
-47
-50
-47
-48
-51
-48
-49
-45
-48
-40
-45
-40
-39
-40
-41
-36
-35
-35
-37
-30
-33
-27
-27
-27
-22
-26
-21
-21
-19
-14
-16
-13
-10
-12
-8
-4
-4
-4
-2
1
0
0
-2
0
-3
-4
-6
-3
-5
-5
-7
-5
-8
-9
-10
-11
-8
-12
-11
-13
-12
-15
-15
-14
-18
-17
-21
-21
-21
-21
-20
-22
-20
-21
-20
-21
-19
-19
-19
-15
-14
-15
-16
-18
-18
-21
-17
-16
-14
-15
-16
-18
-18
-19
-17
-19
-18
-19
-18
-21
-21
-19
-18
-17
-17
-18
-18
-21
-19
-21
-19
-24
-19
-22
-21
-18
-25
-17
-16
-15
-17
-13
-10
-6
-3
-1
2
-1
1
-2
-5
-9
-13
-15
-13
-16
-13
-14
-11
-12
-11
-13
-15
-14
-15
-21
-26
-28
-25
-17
5
36
75
126
184
244
263
234
159
92
34
-3
-26
-40
-44
-49
-47
-48
-49
-46
-48
-48
-44
-42
-43
-42
-42
-41
-40
-40
-39
-34
-33
-33
-32
-29
-30
-29
-26
-27
-24
-20
-21
-19
-19
-13
-15
-13
-10
-9
-10
-9
-6
-5
-5
0
0
-5
-6
-7
-9
-7
-8
-13
-12
-13
-11
-16
-15
-12
-14
-15
-10
-17
-14
-15
-15
-14
-15
-16
-15
-18
-19
-21
-16
-18
-20
-17
-19
-18
-18
-18
-20
-20
-21
-21
-21
-20
-21
-19
-19
-22
-23
-21
-24
-22
-26
-20
-21
-25
-22
-22
-22
-22
-22
-26
-20
-26
-26
-27
-25
-26
-27
-24
-25
-25
-21
-18
-18
-16
-16
-14
-12
-13
-5
-9
-5
-8
-5
-8
-10
-10
-12
-13
-14
-15
-21
-16
-17
-20
-18
-18
-18
-22
-26
-33
-37
-35
-23
-4
29
68
120
187
240
272
242
169
96
35
-5
-30
-42
-51
-55
-55
-53
-56
-54
-57
-54
-57
-56
-52
-54
-52
-52
-53
-49
-50
-46
-44
-40
-42
-41
-37
-36
-33
-32
-29
-27
-24
-19
-19
-16
-14
-16
-12
-14
-10
-13
-9
-10
-8
-9
-7
-9
-9
-10
-9
-12
-12
-12
-13
-12
-12
-13
-12
-13
-14
-13
-13
-8
-8
-12
-9
-8
-13
-12
-15
-17
-19
-21
-18
-19
-18
-16
-17
-18
-18
-19
-20
-20
-16
-19
-20
-15
-19
-18
-21
-21
-19
-19
-19
-20
-19
-19
-21
-18
-21
-20
-21
-21
-18
-20
-21
-19
-24
-23
-24
-22
-25
-18
-19
-16
-18
-12
-8
-11
-9
-6
0
0
-3
0
-5
-8
-7
-6
-6
-11
-10
-9
-10
-10
-7
-7
-9
-11
-12
-13
-17
-22
-27
-16
-2
26
61
109
168
227
274
267
202
129
66
18
-10
-29
-36
-38
-43
-41
-40
-39
-37
-36
-36
-31
-32
-28
-29
-30
-26
-24
-25
-27
-22
-20
-22
-16
-16
-19
-19
-16
-13
-14
-11
-8
-11
-6
-6
-6
0
-2
2
1
0
2
1
2
1
2
2
1
3
-3
-2
0
-4
-7
-4
-9
-7
-6
-10
-8
-6
-10
-10
-11
-11
-9
-14
-12
-13
-17
-15
-12
-11
-12
-13
-14
-14
-15
-12
-12
-11
-17
-13
-16
-14
-15
-15
-17
-21
-15
-19
-16
-16
-16
-16
-20
-21
-21
-21
-21
-21
-21
-22
-22
-26
-25
-23
-24
-22
-19
-20
-16
-17
-12
-12
-6
-6
-1
-3
1
0
-5
-2
-7
-8
-11
-10
-10
-10
-9
-9
-9
-11
-9
-13
-15
-18
-18
-25
-31
-30
-21
-8
21
56
100
154
216
260
252
199
128
62
11
-17
-32
-41
-44
-48
-49
-49
-49
-51
-48
-45
-47
-46
-45
-43
-44
-42
-40
-39
-40
-41
-39
-39
-39
-33
-35
-33
-33
-32
-31
-31
-34
-26
-26
-22
-18
-17
-14
-10
-8
-8
-13
-10
-12
-8
-8
-7
-9
-10
-8
-11
-12
-10
-14
-13
-13
-8
-9
-11
-10
-11
-13
-15
-17
-21
-20
-16
-19
-21
-19
-15
-16
-17
-13
-15
-20
-19
-24
-20
-21
-19
-20
-17
-18
-17
-19
-19
-19
-18
-18
-18
-12
-16
-19
-19
-17
-18
-19
-17
-19
-19
-13
-13
-13
-16
-12
-8
-8
-3
-5
1
3
1
-1
4
5
9
10
7
5
5
2
3
4
1
3
4
4
4
3
8
5
4
-6
-13
-13
-8
9
30
61
103
157
223
277
293
248
179
113
57
21
-4
-13
-23
-23
-24
-25
-28
-30
-23
-18
-13
-11
-11
-12
-11
-6
-4
-2
1
5
8
12
15
18
22
31
42
44
46
50
56
59
58
60
67
71
77
83
97
102
107
109
114
122
131
143
157
161
163
171
175
181
180
175
174
177
181
181
176
169
165
159
147
148
148
147
143
138
138
136
133
128
126
119
107
105
108
108
104
93
89
86
86
76
73
72
68
58
57
54
45
32
29
27
22
16
14
9
12
8
5
8
6
7
8
5
0
-3
-12
-16
-19
-29
-41
-47
-61
-68
-82
-91
-97
-105
-108
-109
-119
-117
-122
-123
-124
-126
-136
-144
-154
-152
-154
-142
-124
-89
-47
5
53
91
84
32
-39
-109
-143
-172
-193
-200
-208
-207
-205
-200
-201
-198
-199
-189
-185
-179
-178
-169
-169
-165
-163
-159
-161
-157
-148
-147
-144
-141
-136
-133
-131
-128
-130
-121
-121
-117
-117
-115
-112
-110
-109
-100
-105
-100
-92
-89
-88
-85
-83
-80
-79
-77
-76
-74
-72
-68
-73
-66
-60
-63
-58
-61
-64
-60
-60
-59
-62
-59
-58
-57
-57
-54
-58
-59
-57
-56
-57
-55
-54
-49
-51
-49
-53
-50
-48
-51
-50
-49
-52
-46
-44
-43
-43
-41
-42
-43
-37
-39
-37
-36
-35
-32
-33
-30
-27
-21
-23
-21
-16
-12
-14
-8
-4
-2
4
1
3
10
11
14
15
15
24
27
37
39
47
51
59
70
71
74
72
77
85
99
124
153
200
254
308
366
391
369
317
259
213
184
162
149
143
135
131
130
126
118
110
108
101
97
93
82
72
68
60
54
47
38
34
32
25
25
25
19
15
8
4
-3
-8
-12
-17
-23
-25
-24
-23
-31
-34
-33
-39
-38
-39
-38
-39
-43
-43
-37
-36
-42
-45
-48
-52
-55
-53
-52
-59
-57
-62
-60
-62
-65
-65
-69
-68
-69
-75
-80
-82
-83
-84
-81
-84
-82
-88
-86
-86
-85
-85
-84
-86
-91
-94
-93
-92
-94
-95
-93
-92
-92
-101
-95
-92
-94
-99
-102
-94
-88
-82
-81
-77
-74
-72
-72
-67
-67
-70
-70
-74
-74
-77
-78
-74
-75
-74
-75
-73
-73
-75
-73
-67
-67
-61
-66
-72
-77
-85
-85
-75
-58
-31
7
51
101
154
185
170
123
57
4
-41
-68
-80
-86
-87
-85
-90
-85
-80
-83
-76
-78
-79
-74
-75
-73
-66
-67
-70
-69
-66
-65
-65
-60
-61
-57
-55
-55
-49
-52
-43
-43
-42
-40
-39
-35
-37
-37
-33
-34
-34
-34
-29
-27
-26
-27
-25
-22
-23
-24
-23
-27
-33
-32
-29
-29
-31
-28
-29
-24
-26
-25
-25
-27
-29
-30
-30
-33
-33
-34
-37
-34
-32
-31
-31
-32
-34
-32
-30
-33
-35
-38
-34
-36
-34
-34
-35
-36
-35
-32
-33
-37
-34
-37
-38
-37
-39
-37
-32
-35
-33
-30
-26
-21
-18
-18
-15
-14
-16
-15
-19
-22
-25
-24
-22
-23
-22
-23
-21
-19
-17
-21
-21
-21
-23
-26
-26
-33
-36
-29
-15
6
39
79
132
193
244
260
220
152
88
36
-3
-24
-37
-42
-40
-45
-41
-40
-42
-40
-36
-39
-32
-32
-35
-32
-34
-37
-37
-33
-30
-24
-25
-24
-23
-22
-18
-15
-16
-11
-11
-8
-6
-4
-3
-7
-4
-5
0
8
6
1
5
3
4
7
6
7
5
8
3
4
1
1
-2
1
1
5
6
4
5
5
7
10
9
10
13
9
9
12
7
1
3
2
-2
-2
3
-4
-3
-6
-1
0
-6
-6
-9
-7
-10
-13
-15
-16
-16
-17
-9
-3
1
-4
-9
-7
-12
-11
-5
-4
2
-1
3
-3
-4
-5
-5
0
-4
-4
-5
-5
-9
-8
-10
-10
-7
-8
-8
-10
-4
-8
-13
-16
-25
-30
-29
-17
2
26
64
108
157
214
245
240
181
112
55
16
-12
-33
-46
-53
-55
-51
-45
-47
-43
-41
-36
-34
-35
-32
-30
-30
-28
-31
-31
-32
-32
-31
-33
-30
-28
-24
-21
-19
-19
-16
-15
-16
-15
-15
-17
-10
-12
-8
-11
-9
-9
-3
-3
-7
-8
-9
-9
-9
-8
-9
-8
-7
-2
-7
-3
2
-3
-2
-4
-5
-5
-4
0
0
1
-5
-5
-4
-4
-6
-7
-7
-9
-11
-10
-13
-11
-7
-5
2
-7
-11
-7
-13
-13
-15
-14
-8
-11
-11
-9
-8
-17
-20
-16
-21
-16
-16
-15
-14
-8
-12
-11
-7
-10
-7
-2
6
13
9
6
4
-5
-8
-9
-11
-9
-8
-8
-15
-9
-12
-12
-9
-11
-10
-9
-17
-25
-30
-31
-24
-7
20
49
90
135
181
217
201
148
84
33
-5
-28
-40
-45
-44
-44
-45
-42
-41
-40
-43
-41
-38
-36
-35
-33
-32
-36
-34
-32
-37
-29
-31
-27
-27
-25
-21
-22
-21
-16
-14
-12
-12
-9
-9
-13
-10
-9
-14
-14
-8
-7
-9
-8
-8
-9
-7
-4
-5
-4
-10
-6
-8
-7
-5
1
5
8
4
1
2
2
0
2
4
4
3
1
-1
-6
-7
-9
-10
-6
-3
-3
-3
-4
-4
-6
-7
-9
-10
-11
-8
-10
-9
-9
-8
-10
-13
-9
-13
-13
-12
-14
-12
-13
-13
-13
-15
-17
-14
-15
-12
-10
-7
-2
0
2
-1
7
3
8
4
0
-9
-10
-8
-9
-13
-13
-13
-12
-9
-7
-12
-8
-12
-18
-23
-27
-25
-14
3
31
68
110
164
216
241
211
155
92
31
4
-17
-26
-29
-35
-34
-36
-41
-42
-37
-37
-37
-29
-29
-27
-29
-23
-22
-21
-16
-20
-23
-23
-23
-19
-16
-15
-15
-11
-11
-10
-9
-4
-9
-6
-4
-9
-8
-9
-7
-7
-5
-9
-11
-10
-9
-13
-8
-4
-6
-9
-9
-8
-7
-10
-14
-13
-13
-10
-8
-7
-10
-7
-4
4
8
8
10
15
15
16
13
9
4
-2
0
-4
-7
-5
0
-3
-6
-9
-13
-5
2
9
9
7
3
-4
-3
0
-1
2
-5
-4
-9
-5
-4
4
-2
-10
-8
-9
-3
4
8
13
14
7
2
6
3
6
5
4
4
5
5
9
9
3
-5
-4
-2
6
7
1
-12
-25
-30
-23
2
34
81
115
168
228
274
267
211
147
82
37
10
-9
-27
-37
-41
-35
-23
-16
-15
-16
-22
-26
-25
-18
-16
-16
-16
-16
-18
-20
-24
-23
-16
-7
-5
0
2
-4
-3
-1
0
-3
3
4
8
1
2
4
10
13
11
9
4
1
1
8
3
2
-6
-3
-5
3
1
-4
0
4
8
9
10
10
4
4
5
6
5
12
13
13
8
8
5
5
-1
-4
-9
-12
-7
-4
1
3
-2
-3
-7
-6
-11
-8
-2
-7
-13
-17
-17
-16
-18
-19
-11
-10
-9
-11
-7
-16
-21
-25
-30
-23
-19
-12
-5
2
3
-1
-4
-5
-6
-9
-9
-11
-18
-20
-17
-13
-11
-12
-17
-14
-19
-18
-19
-16
-14
-18
-22
-24
-21
-16
7
40
84
144
202
257
260
209
137
75
29
-6
-28
-40
-43
-46
-46
-48
-51
-53
-61
-64
-57
-48
-44
-52
-49
-45
-41
-41
-37
-37
-39
-36
-33
-34
-31
-30
-35
-36
-38
-39
-34
-29
-29
-29
-33
-27
-26
-26
-20
-20
-22
-23
-28
-31
-28
-28
-33
-36
-35
-34
-32
-32
-28
-28
-29
-25
-25
-18
-17
-17
-19
-15
-15
-12
-15
-12
-15
-18
-24
-25
-23
-23
-17
-20
-20
-21
-22
-22
-26
-29
-29
-31
-32
-30
-35
-37
-34
-38
-43
-36
-37
-36
-40
-40
-40
-39
-35
-33
-32
-30
-34
-35
-35
-29
-30
-28
-28
-32
-31
-34
-36
-38
-38
-41
-40
-41
-40
-45
-39
-39
-40
-44
-41
-48
-55
-63
-70
-64
-50
-23
12
58
121
179
233
242
192
111
35
-12
-47
-63
-77
-83
-84
-89
-89
-85
-86
-82
-79
-79
-73
-75
-73
-71
-70
-69
-67
-69
-69
-68
-64
-56
-59
-55
-53
-54
-56
-48
-48
-49
-51
-49
-42
-41
-40
-41
-38
-40
-39
-39
-37
-36
-35
-37
-36
-38
-41
-41
-39
-35
-29
-26
-29
-22
-24
-20
-19
-18
-17
-18
-18
-19
-18
-19
-20
-19
-20
-18
-21
-22
-25
-22
-25
-23
-21
-18
-21
-19
-21
-20
-19
-23
-23
-23
-25
-24
-24
-24
-20
-23
-24
-20
-23
-28
-27
-28
-24
-27
-25
-23
-24
-22
-15
-13
-7
-9
-7
-9
-8
-10
-9
-16
-13
-21
-15
-14
-14
-15
-17
-13
-15
-15
-12
-13
-19
-27
-33
-29
-26
-12
16
49
103
150
206
251
245
192
124
66
20
-6
-25
-36
-43
-42
-40
-41
-33
-32
-34
-35
-36
-37
-34
-33
-31
-28
-29
-25
-24
-20
-22
-21
-22
-16
-13
-13
-10
-7
-4
-7
-8
-9
-5
-2
1
2
4
3
6
9
3
3
3
6
3
5
3
1
3
-2
-1
0
0
1
4
1
1
4
6
10
8
10
9
8
7
5
10
6
8
8
8
9
3
6
3
4
7
4
4
2
1
-3
3
3
7
3
3
-2
-3
-4
-4
-6
-8
-7
-6
2
0
0
2
3
5
8
11
9
12
11
7
7
5
2
4
4
1
1
3
9
4
6
7
8
2
-4
-13
-20
-25
-20
-10
9
49
93
152
210
262
277
233
168
96
42
8
-15
-31
-38
-42
-43
-43
-43
-40
-36
-37
-34
-36
-37
-37
-31
-26
-29
-30
-24
-25
-22
-23
-25
-25
-23
-21
-17
-17
-12
-13
-10
-4
-5
-6
-8
-4
-2
1
0
-1
-3
-4
-6
-5
-4
-3
-5
-8
-11
-13
-11
-11
-8
-4
-6
-4
0
-5
-4
-2
1
2
2
2
-2
0
4
4
8
4
4
-3
1
1
2
2
2
3
-1
-5
-7
1
-4
-9
-6
-7
-8
-7
-11
-13
-17
-11
-13
-20
-19
-22
-17
-13
-10
0
0
-3
-3
3
-3
-9
-14
-10
-8
-9
-13
-16
-14
-20
-17
-13
-13
-7
-6
-11
-15
-12
-18
-22
-29
-23
-7
14
37
80
126
181
241
275
247
187
117
63
21
-9
-30
-48
-53
-52
-40
-33
-27
-30
-33
-36
-37
-37
-36
-35
-34
-34
-35
-35
-32
-38
-43
-34
-19
-15
-10
-13
-16
-13
-12
-7
2
1
1
4
7
12
10
10
9
4
11
8
4
-7
-6
4
15
15
13
11
11
19
28
30
31
21
26
36
43
57
58
58
61
60
56
54
54
52
51
55
60
56
53
53
48
42
46
46
49
54
54
49
45
35
32
27
25
21
15
10
2
3
7
6
3
-3
-5
-3
1
0
-7
-3
-8
-11
-12
-16
-23
-24
-27
-26
-27
-31
-34
-31
-30
-33
-33
-38
-47
-50
-58
-56
-57
-44
-29
3
40
90
144
197
232
221
166
99
37
-5
-37
-58
-68
-73
-76
-79
-81
-81
-80
-80
-81
-85
-80
-82
-81
-81
-80
-80
-80
-79
-80
-85
-84
-84
-80
-76
-73
-70
-72
-70
-70
-71
-64
-67
-68
-71
-72
-71
-72
-70
-70
-73
-77
-80
-82
-83
-83
-83
-80
-82
-78
-76
-74
-75
-71
-73
-67
-65
-61
-57
-59
-56
-61
-59
-56
-52
-49
-47
-47
-49
-47
-55
-58
-61
-60
-58
-58
-61
-62
-59
-62
-61
-62
-64
-62
-62
-66
-69
-74
-72
-72
-69
-68
-63
-58
-52
-57
-56
-53
-51
-47
-45
-45
-48
-49
-51
-50
-50
-50
-49
-52
-52
-50
-47
-47
-46
-40
-47
-48
-57
-67
-74
-72
-59
-34
-7
39
91
156
219
258
234
160
86
23
-18
-40
-55
-64
-66
-69
-70
-67
-65
-59
-57
-55
-56
-56
-52
-51
-46
-49
-50
-49
-44
-39
-39
-34
-34
-36
-37
-32
-32
-30
-20
-17
-18
-18
-13
-12
-9
-13
-9
-13
-13
-11
-11
-9
-9
-3
-6
-8
-7
-10
-7
-6
-4
-5
-5
-5
-7
2
8
10
8
14
13
11
14
14
13
14
11
13
15
16
11
14
11
13
13
14
13
12
13
11
14
12
10
7
7
7
3
3
4
4
-1
4
3
7
6
5
13
14
20
20
20
18
20
18
17
22
17
18
14
13
11
17
13
16
17
17
17
20
11
8
0
-9
-7
0
17
43
79
128
181
240
284
274
214
141
80
38
4
-10
-16
-25
-29
-30
-31
-34
-36
-38
-38
-39
-37
-39
-37
-36
-34
-39
-38
-34
-34
-32
-28
-31
-27
-24
-24
-24
-25
-24
-23
-20
-14
-17
-14
-17
-15
-17
-15
-14
-16
-16
-15
-13
-17
-14
-16
-17
-20
-19
-22
-20
-20
-22
-20
-16
-16
-14
-13
-8
-10
-10
-11
-10
-13
-12
-12
-9
-9
-9
-9
-11
-9
-12
-15
-10
-12
-12
-14
-12
-14
-14
-16
-20
-19
-18
-19
-16
-15
-20
-20
-25
-22
-23
-20
-17
-20
-18
-13
-12
-11
-8
-6
-9
-9
-10
-13
-13
-16
-17
-18
-19
-19
-19
-16
-18
-20
-20
-21
-23
-27
-37
-43
-45
-36
-22
3
40
91
148
211
257
258
202
122
57
11
-23
-45
-50
-54
-58
-59
-62
-57
-56
-57
-56
-55
-50
-51
-51
-51
-46
-46
-44
-46
-41
-37
-36
-34
-32
-33
-31
-28
-29
-24
-20
-20
-18
-14
-16
-14
-13
-14
-13
-12
-13
-13
-14
-12
-12
-12
-12
-11
-11
-9
-11
-14
-16
-14
-11
-9
-9
-4
-3
-2
-2
5
3
8
8
7
10
10
8
7
7
2
-1
4
3
4
6
6
3
8
6
6
7
4
2
2
1
1
-3
1
-6
-1
-2
-5
1
-5
-7
-9
-11
-7
-7
-3
1
2
5
7
9
12
16
14
11
6
5
-2
-2
0
-3
-2
1
-5
2
1
3
0
-4
-8
-15
-22
-21
-16
5
29
69
115
178
239
280
267
203
129
71
27
7
-15
-23
-26
-30
-36
-36
-35
-33
-36
-36
-35
-28
-26
-32
-26
-27
-29
-29
-27
-24
-22
-17
-17
-16
-17
-15
-12
-11
-8
-7
-4
-3
-6
-7
-2
-2
-2
-2
1
2
0
-3
2
-4
-4
-3
-4
-3
-7
-5
-9
-13
-4
-7
-2
-3
0
4
3
4
5
7
8
5
7
3
6
8
3
6
6
1
4
2
5
4
2
1
2
1
1
-2
-6
-4
-5
-3
-4
-5
-6
-8
-8
-9
-11
-11
-10
-11
-12
-14
-12
-14
-17
-17
-17
-14
-12
-14
-13
-11
-12
-5
-6
-8
-7
-3
-5
-11
-15
-10
-14
-19
-17
-17
-16
-20
-21
-19
-21
-22
-27
-34
-44
-48
-46
-35
-14
23
67
126
192
247
259
207
134
63
9
-22
-41
-50
-57
-59
-63
-60
-60
-59
-60
-60
-55
-56
-56
-55
-54
-55
-55
-51
-53
-51
-50
-47
-44
-45
-42
-38
-32
-38
-34
-32
-33
-33
-31
-26
-28
-23
-26
-21
-23
-22
-21
-24
-24
-21
-24
-21
-24
-25
-21
-25
-23
-24
-25
-24
-20
-21
-19
-17
-14
-13
-13
-14
-15
-12
-17
-14
-16
-19
-21
-21
-22
-24
-22
-26
-21
-24
-24
-20
-22
-25
-24
-27
-24
-24
-24
-27
-27
-26
-27
-26
-26
-25
-28
-26
-28
-27
-24
-26
-28
-29
-29
-29
-33
-33
-33
-30
-33
-30
-30
-24
-25
-24
-21
-16
-16
-17
-12
-10
-9
-14
-16
-17
-16
-16
-20
-21
-16
-19
-16
-18
-15
-18
-15
-22
-27
-32
-37
-38
-29
-11
17
57
109
173
232
259
229
166
94
35
1
-24
-37
-40
-44
-45
-42
-41
-41
-41
-40
-40
-38
-35
-32
-32
-33
-32
-32
-28
-25
-24
-25
-22
-23
-20
-21
-17
-15
-16
-13
-13
-9
-11
-6
-4
0
-3
4
2
2
5
3
3
5
4
3
3
-4
-2
-1
-3
-5
-2
-5
-4
-4
-2
-1
5
6
5
5
5
5
4
2
3
2
2
2
1
-4
0
-3
-5
-4
-6
-4
-5
-5
-7
-7
-13
-11
-11
-11
-15
-16
-17
-15
-10
-12
-12
-11
-13
-13
-13
-13
-13
-14
-16
-15
-19
-17
-16
-16
-18
-18
-16
-18
-20
-21
-20
-23
-19
-24
-20
-20
-20
-20
-20
-19
-12
-11
-12
-9
-7
-5
-6
-4
-6
-10
-12
-15
-10
-12
-14
-12
-13
-9
-11
-14
-14
-14
-20
-28
-32
-32
-16
4
30
76
126
193
253
288
261
188
112
50
6
-19
-32
-39
-43
-42
-45
-45
-42
-45
-40
-40
-43
-43
-41
-38
-39
-39
-36
-33
-33
-31
-28
-29
-22
-26
-25
-28
-26
-24
-16
-18
-12
-16
-10
-11
-8
-11
-11
-11
-9
-7
-9
-11
-9
-8
-9
-11
-12
-11
-13
-14
-17
-14
-17
-16
-13
-12
-13
-9
-9
-5
-2
-3
0
-3
-2
-1
-2
-3
0
-3
-2
-5
-2
-7
-4
-6
-8
-5
-6
-10
-7
-11
-13
-10
-7
-11
-10
-12
-15
-15
-12
-14
-10
-13
-14
-13
-15
-14
-16
-16
-19
-16
-17
-21
-20
-17
-18
-18
-22
-21
-15
-20
-20
-17
-19
-21
-16
-19
-18
-21
-19
-18
-20
-22
-15
-16
-13
-11
-12
-10
-6
-3
-4
-1
1
2
-2
-5
-6
-8
-6
-6
-4
-7
-8
-3
-6
0
-8
-11
-15
-20
-28
-31
-22
-8
18
58
109
169
234
281
274
212
135
69
20
-11
-26
-37
-41
-42
-45
-45
-47
-47
-49
-44
-43
-40
-40
-40
-38
-38
-39
-39
-39
-37
-33
-31
-32
-27
-27
-26
-26
-20
-21
-21
-21
-19
-16
-16
-16
-15
-11
-12
-13
-12
-12
-14
-13
-11
-13
-14
-13
-14
-14
-18
-19
-21
-19
-21
-17
-21
-15
-12
-10
-9
-7
-7
-3
-6
-3
-6
-5
-9
-11
-11
-11
-14
-14
-13
-17
-17
-19
-19
-23
-24
-20
-22
-21
-26
-23
-22
-25
-25
-24
-26
-25
-22
-26
-24
-27
-28
-29
-28
-29
-26
-31
-28
-27
-28
-28
-27
-29
-25
-29
-31
-29
-26
-29
-27
-31
-27
-27
-28
-30
-30
-31
-30
-30
-33
-31
-29
-27
-24
-23
-20
-18
-14
-17
-13
-14
-17
-15
-21
-21
-19
-22
-23
-24
-24
-26
-22
-22
-22
-27
-26
-37
-44
-53
-52
-44
-28
1
45
103
158
216
246
217
145
76
19
-19
-43
-54
-58
-65
-63
-61
-56
-59
-57
-56
-55
-54
-52
-53
-46
-50
-48
-42
-42
-43
-42
-37
-36
-31
-32
-31
-27
-26
-22
-22
-18
-17
-12
-13
-12
-10
-9
-9
-7
-7
-2
-6
-2
1
-2
0
-5
-5
-5
-3
-4
-3
-4
-5
-5
-4
0
2
3
1
-3
1
0
-3
-4
-3
-3
-4
-3
-9
-9
-10
-11
-13
-11
-11
-12
-12
-12
-14
-16
-14
-15
-15
-17
-12
-19
-19
-14
-12
-15
-14
-17
-13
-13
-17
-18
-15
-17
-16
-18
-19
-17
-15
-17
-17
-16
-15
-16
-15
-14
-8
-9
-12
-13
-12
-12
-15
-17
-12
-15
-14
-15
-16
-14
-16
-12
-14
-10
-9
-8
-4
1
2
2
5
5
8
5
4
-1
0
0
-3
-4
-3
-7
-4
-5
-5
-4
-6
-10
-14
-21
-25
-22
-10
14
47
87
135
193
237
247
203
135
70
20
-7
-24
-31
-35
-35
-33
-35
-34
-32
-32
-32
-28
-29
-29
-26
-23
-27
-29
-25
-22
-20
-19
-16
-15
-14
-14
-12
-12
-9
-5
-6
-1
-5
2
3
5
1
7
11
10
9
14
14
10
11
11
13
7
8
10
8
3
7
3
5
4
7
6
6
5
6
2
5
4
2
2
-1
1
-2
-2
-4
-4
-7
-8
-5
-4
-8
-7
-9
-7
-9
-8
-11
-13
-8
-11
-10
-11
-10
-12
-11
-12
-12
-11
-13
-10
-13
-13
-12
-13
-15
-15
-17
-14
-18
-17
-15
-16
-19
-17
-16
-14
-14
-13
-16
-15
-13
-10
-13
-15
-14
-15
-16
-16
-20
-17
-18
-21
-20
-17
-15
-16
-14
-14
-11
-7
-4
-3
-2
-4
-5
-8
-7
-10
-13
-14
-13
-15
-17
-19
-15
-19
-14
-15
-19
-21
-24
-29
-31
-28
-12
15
45
87
135
189
224
218
166
100
45
8
-14
-33
-37
-40
-40
-41
-42
-41
-39
-40
-39
-37
-38
-37
-36
-37
-36
-34
-37
-33
-29
-31
-29
-28
-25
-27
-26
-25
-25
-21
-21
-21
-19
-18
-15
-12
-15
-13
-11
-13
-9
-10
-10
-10
-12
-8
-10
-11
-9
-12
-10
-8
-12
-11
-11
-12
-12
-10
-7
-7
-7
-5
-7
-8
-8
-4
-7
-7
-6
-8
-11
-14
-16
-14
-18
-17
-16
-19
-17
-17
-18
-15
-17
-18
-19
-16
-21
-20
-20
-23
-27
-22
-20
-22
-22
-19
-22
-20
-21
-21
-25
-21
-19
-21
-18
-18
-19
-18
-17
-15
-18
-17
-18
-14
-13
-13
-15
-17
-15
-17
-16
-21
-20
-19
-18
-16
-18
-17
-17
-17
-16
-16
-14
-11
-10
-6
-2
2
4
6
6
3
1
-5
-2
-3
-3
-2
-5
-4
-7
-8
-9
-12
-13
-18
-21
-30
-33
-27
-7
16
47
95
151
214
270
281
234
156
99
47
15
-11
-24
-32
-36
-40
-43
-42
-43
-43
-45
-44
-49
-43
-43
-45
-44
-42
-40
-39
-36
-36
-35
-33
-30
-33
-29
-29
-27
-27
-24
-20
-23
-21
-20
-17
-18
-16
-16
-15
-19
-19
-18
-21
-23
-20
-22
-21
-23
-25
-24
-26
-28
-28
-25
-22
-23
-23
-18
-17
-17
-12
-11
-5
0
-1
0
-1
5
4
3
3
-1
-2
-3
-2
0
-4
-6
-4
-7
-11
-9
-9
-13
-16
-16
-14
-13
-12
-14
-15
-14
-11
-13
-8
-11
-13
-8
-8
-10
-7
-7
-9
0
-7
-11
-5
-6
-11
-9
-10
-8
-11
-8
-6
-8
-9
-8
-4
-11
-8
-8
-7
-6
-5
-2
1
2
3
10
5
8
8
4
4
-2
-5
-9
-13
-5
-6
-6
-9
-10
-7
-9
-9
-10
-23
-27
-36
-36
-32
-15
5
49
95
159
219
265
267
213
139
79
31
-1
-23
-35
-42
-43
-50
-49
-45
-46
-50
-49
-49
-51
-47
-46
-44
-45
-44
-42
-45
-40
-40
-41
-35
-36
-37
-37
-32
-35
-28
-31
-29
-29
-29
-26
-24
-25
-24
-23
-24
-23
-23
-25
-27
-24
-24
-27
-24
-21
-24
-20
-25
-25
-20
-22
-18
-15
-13
-12
-10
-6
-2
-5
-2
0
0
-5
-7
-7
-10
-11
-11
-8
-9
-15
-15
-15
-17
-18
-19
-19
-19
-20
-22
-23
-22
-24
-26
-26
-24
-25
-25
-24
-21
-25
-22
-25
-23
-23
-24
-26
-25
-25
-26
-26
-25
-24
-23
-24
-22
-23
-24
-22
-25
-24
-25
-23
-28
-25
-27
-25
-25
-22
-21
-16
-13
-14
-12
-13
-11
-12
-10
-16
-13
-15
-15
-17
-16
-18
-16
-19
-17
-21
-20
-20
-18
-25
-28
-38
-43
-41
-28
-7
28
79
135
199
257
289
254
185
107
48
9
-19
-35
-47
-49
-50
-50
-50
-48
-49
-46
-47
-49
-47
-49
-51
-46
-45
-45
-44
-44
-42
-40
-39
-35
-33
-35
-31
-30
-26
-23
-25
-25
-23
-21
-17
-16
-18
-19
-20
-18
-17
-15
-14
-12
-14
-17
-15
-15
-15
-10
-12
-14
-8
-8
-9
0
-5
-3
0
2
0
-1
-5
-5
-3
-6
-8
-7
-10
-12
-14
-13
-16
-16
-17
-18
-18
-18
-21
-19
-23
-21
-21
-20
-20
-21
-23
-23
-24
-22
-23
-22
-22
-23
-22
-23
-24
-25
-22
-21
-24
-19
-19
-21
-24
-23
-22
-25
-24
-26
-21
-24
-26
-26
-25
-26
-24
-24
-22
-21
-19
-14
-13
-7
-6
-8
-4
-7
-5
-7
-9
-13
-10
-12
-15
-11
-9
-11
-11
-13
-17
-11
-13
-14
-25
-34
-40
-37
-27
1
35
81
137
201
249
255
203
129
67
19
-13
-29
-39
-40
-46
-44
-43
-40
-40
-44
-40
-36
-42
-41
-40
-34
-37
-34
-34
-34
-34
-31
-32
-29
-26
-23
-25
-23
-20
-20
-13
-14
-8
-10
-7
-3
-5
-7
-4
-1
0
-1
0
-2
1
0
1
-2
3
4
4
2
8
8
10
10
10
12
16
12
11
14
13
14
13
8
5
3
3
0
-2
-4
-7
-12
-12
-14
-12
-17
-17
-19
-17
-18
-17
-21
-20
-20
-22
-24
-23
-23
-23
-25
-24
-28
-27
-30
-26
-31
-31
-26
-30
-29
-27
-32
-31
-30
-31
-33
-37
-35
-37
-36
-40
-36
-37
-35
-32
-33
-30
-31
-26
-23
-20
-22
-18
-21
-25
-24
-28
-31
-32
-30
-29
-28
-32
-31
-29
-29
-26
-30
-34
-37
-44
-53
-53
-44
-28
0
39
90
154
215
265
256
196
119
51
7
-26
-39
-49
-53
-54
-53
-54
-52
-53
-48
-51
-47
-47
-48
-44
-43
-41
-37
-37
-34
-34
-31
-30
-30
-29
-27
-25
-20
-20
-21
-21
-21
-16
-16
-12
-10
-8
-12
-11
-6
-7
-6
-6
-9
-9
-10
-5
-8
-10
-8
-12
-8
-13
-11
-12
-7
-7
-9
-4
-5
-7
-2
2
-5
-5
1
-6
-4
-10
-9
-13
-13
-12
-9
-12
-14
-15
-15
-14
-16
-14
-17
-17
-22
-22
-20
-23
-21
-19
-25
-22
-27
-24
-28
-28
-25
-26
-26
-28
-25
-26
-31
-30
-28
-28
-26
-29
-26
-28
-27
-29
-24
-21
-18
-17
-13
-11
-8
-7
-5
-7
-10
-11
-14
-19
-17
-18
-18
-17
-16
-17
-16
-17
-16
-17
-20
-23
-33
-36
-41
-33
-16
14
47
103
165
234
281
278
214
129
61
12
-25
-39
-50
-48
-50
-48
-52
-50
-48
-45
-43
-42
-41
-39
-39
-36
-37
-34
-35
-34
-31
-27
-26
-24
-22
-20
