# ASI test file format
# {"c261c5a084f8c6b6":{"device ID": "c261c5a084f8c6b6","comments": " 60 minutes run, followed by 5x20 sec strides. Fabric rinsed by water before.","keywords": "FieldWiz, Version 1, Run","firmware version": "0.6.3","device": "FieldWiz + T-shirt version 2","sampling rate": 250,"resolution": "[16-bit]","date": "2020-02-06","column": ["ECG", "A1"],"sensor": ["A1","ECG"],"label": ["ECG"]}
}
# EndOfHeader
-10
-39
325
1047
1535
1748
1847
1892
1911
1919
1928
1929
1931
1932
1931
1930
1932
1933
1932
1934
1932
1930
1932
1929
1932
1932
1931
1933
1932
1932
1934
1930
1931
1932
1933
1936
1932
1932
1932
1930
1932
1931
1930
1931
1932
1932
1931
1932
1930
1930
1931
1931
1932
1927
1930
1932
1929
1929
1927
1928
1932
1928
1929
1927
1928
1927
1925
1926
1928
1927
1925
1925
1927
1925
1927
1927
1927
1927
1928
1926
1917
1895
1875
1855
1839
1820
1805
1785
1768
1755
1738
1719
1706
1690
1677
1662
1644
1629
1617
1601
1587
1572
1557
1543
1528
1511
1502
1485
1474
1459
1445
1433
1421
1406
1393
1380
1367
1351
1341
1329
1313
1303
1291
1279
1269
1257
1244
1233
1219
1207
1196
1186
1173
1164
1151
1139
1131
1117
1107
1097
1088
1077
1066
1055
1043
1035
1027
1016
1007
996
989
977
967
959
947
938
930
922
912
902
893
883
875
868
859
849
842
832
824
816
808
799
793
784
776
767
750
590
276
114
36
2
-13
-20
-23
-25
-23
71
578
1196
1592
1768
1845
1882
1897
1907
1910
1912
1911
1912
1913
1913
1913
1911
1913
1912
1912
1912
1910
1916
1911
1916
1915
1915
1911
1911
1912
1913
1911
1912
1911
1916
1912
1913
1913
1911
1912
1909
1911
1912
1913
1913
1911
1914
1912
1911
1910
1911
1911
1899
1878
1859
1840
1820
1801
1782
1766
1748
1731
1713
1697
1679
1665
1647
1633
1619
1604
1585
1569
1555
1544
1525
1512
1495
1483
1468
1455
1440
1426
1412
1396
1384
1369
1357
1343
1329
1315
1306
1291
1278
1267
1251
1243
1232
1216
1203
1190
1179
1169
1158
1143
1134
1123
1112
1102
1089
1078
1065
1053
1045
1035
1024
1015
1005
996
985
974
963
953
944
935
925
916
909
900
890
881
872
864
854
846
836
826
818
812
802
794
786
777
769
759
753
746
736
727
722
715
708
700
692
684
680
674
664
658
650
643
638
631
626
618
610
605
598
594
584
583
574
567
563
556
550
546
540
536
529
521
519
512
503
501
494
488
485
479
475
469
464
460
456
450
445
441
436
429
427
424
417
411
408
403
400
395
392
387
381
379
374
372
368
361
359
355
352
348
343
338
336
336
328
323
320
318
313
310
308
303
299
295
292
289
288
284
281
278
275
272
267
265
263
262
257
253
251
251
243
244
241
236
236
232
228
226
225
222
218
218
212
213
210
208
207
201
198
201
195
192
192
190
185
184
184
177
180
177
175
173
171
169
166
163
162
160
158
157
155
154
152
150
148
147
145
141
142
139
137
137
136
134
129
130
130
127
125
124
122
119
122
119
116
116
113
112
110
109
111
108
108
105
102
103
100
100
99
97
99
96
93
93
93
93
87
89
88
89
85
86
84
83
84
81
80
80
77
77
77
76
74
74
72
71
72
70
67
69
65
66
66
66
62
61
62
62
59
59
60
58
55
56
55
54
55
56
54
52
50
50
49
51
51
47
48
45
45
41
46
45
44
46
42
41
41
40
42
39
40
40
41
38
37
36
37
38
33
36
31
32
31
33
32
32
30
31
30
30
29
30
26
27
28
29
26
25
28
25
23
25
25
21
24
24
25
20
22
21
21
20
21
21
19
19
17
19
17
18
16
18
19
15
15
18
15
16
16
12
15
13
15
17
16
16
16
11
14
12
10
12
13
11
11
10
11
12
11
8
9
9
11
12
8
8
8
11
6
8
10
6
7
7
5
7
3
8
5
5
6
8
6
6
4
6
5
5
3
4
1
3
5
4
4
4
3
4
2
2
1
0
2
2
0
1
2
-3
-1
-1
-1
1
-2
-3
-2
-2
-2
-2
-1
2
-2
-3
0
-4
-3
-4
-3
-2
-3
-1
-1
-3
-4
-5
-4
-4
-6
-5
-4
-3
-3
-5
-5
-6
-5
-4
-6
-6
-7
-5
-6
-6
-8
-8
-4
-7
-4
-6
-6
-5
-8
-5
-8
-7
-5
-9
-9
-7
-7
-7
-8
-8
-9
-7
-6
-6
-7
-8
-7
-6
-8
-7
-8
-9
-8
-7
-9
-9
-9
-9
-8
-7
-8
-7
-8
-7
-9
-8
-7
-11
-10
-9
-10
-10
-13
-11
-9
-7
-10
-11
-9
-10
-10
-8
-8
-10
-10
-10
-9
-10
-11
-9
-11
-12
-13
-12
-11
-12
-9
-8
-12
-10
-10
-9
-8
-12
-12
-10
-12
-11
-11
-12
-10
-12
-12
-13
-12
-12
-9
-13
-12
-10
-13
-9
-11
-12
-11
-13
-11
-14
-13
-13
-12
-11
-17
-12
-13
-14
-13
-15
-12
-12
-13
-10
-10
-15
-12
-12
-12
-13
-10
-13
-12
-13
-13
-12
-12
-14
-13
-11
-12
-12
-11
-13
-15
-12
-11
-11
-15
-15
-13
-12
-12
-12
-12
-10
-15
-13
-12
-13
-14
-14
-14
-17
-14
-12
-14
-13
-14
-12
-17
-14
-13
-15
-15
-15
-14
-13
-16
-13
-14
-17
-12
-15
-13
-15
-14
-13
-12
-14
-12
-14
-17
-13
-14
-14
-14
-13
-15
-13
-14
-16
-18
-14
-13
-16
-14
-16
-15
-15
-15
-15
-15
-15
-17
-15
-16
-15
-13
-16
-14
-14
-14
-14
-14
-13
-13
-17
-15
-12
-15
-17
-16
-15
-16
-17
-16
-14
-13
-17
-17
-14
-14
-17
-15
-15
-17
-16
-15
-15
-14
-16
-17
-15
-15
-16
-15
-12
-16
-15
-14
-15
-15
-15
-14
-15
-15
-15
-16
-14
-16
-15
-15
-14
-18
-14
-17
-14
-17
-17
-17
-14
-17
-17
-16
-17
-15
-17
-17
-17
-16
-15
-15
-16
-17
-17
-15
-14
-17
-17
-16
-16
-16
-15
-15
-14
-16
-14
-14
-15
-15
-13
-15
-17
-17
-15
-17
-15
-15
-16
-14
-16
-15
-16
-16
-17
-14
-16
-15
-17
-17
-16
-17
-17
-17
-17
-15
-16
-17
-17
-14
-18
-16
-15
-18
-17
-16
-18
-17
-16
-16
-14
-17
-16
-16
-17
-15
-17
-18
-17
-18
-17
-17
-15
-16
-17
-17
-19
-16
-16
-16
-15
-17
-16
-17
-16
-16
-15
-15
-15
-16
-18
-16
-17
-15
-16
-18
-15
-17
-16
-15
-15
-19
-17
-17
-17
-18
-15
-16
-15
-17
-17
-17
-15
-17
-17
-15
-17
-17
-15
-19
-16
-17
-15
-16
-17
-16
-18
-14
-17
-18
-16
-16
-17
-15
-17
-17
-17
-16
-14
-16
-14
-17
-17
-17
-17
-17
-15
-18
-20
-17
-18
-17
-13
-17
-17
-16
-16
-16
-17
-19
-16
-15
-16
-16
-17
-17
-15
-17
-16
-18
-16
-17
-17
-16
-16
-17
-17
-15
-19
-14
-18
-17
-16
-16
-18
-14
-17
-18
-16
-18
-16
-17
-52
22
414
822
1146
1374
1521
1614
1662
1688
1698
1696
1686
1669
1655
1634
1617
1599
1582
1562
1546
1525
1509
1492
1470
1453
1438
1423
1402
1390
1373
1358
1340
1328
1315
1295
1282
1268
1252
1239
1224
1209
1196
1182
1172
1158
1147
1132
1122
1107
1093
1083
1068
1058
1045
1031
1022
1013
1000
987
974
967
956
943
938
923
917
903
895
881
873
865
857
845
834
823
818
805
798
790
782
769
761
754
747
738
731
722
714
704
697
686
680
673
664
660
651
644
634
626
622
614
609
603
593
585
579
575
563
556
549
544
540
532
527
522
518
510
505
500
494
487
481
477
471
465
463
455
447
446
439
434
432
425
417
416
410
405
401
394
390
387
382
378
374
368
365
359
355
352
345
341
338
336
332
325
324
319
317
311
306
302
299
296
291
291
288
285
279
277
273
269
266
262
260
257
254
251
249
245
242
237
237
233
230
225
223
221
220
218
213
209
209
206
202
199
199
195
194
191
189
185
186
180
179
175
175
172
172
170
166
164
160
159
160
155
155
152
151
148
145
144
142
142
139
136
136
135
132
131
130
126
124
124
120
119
119
115
115
114
113
112
111
108
109
106
104
101
101
98
99
98
95
96
94
92
90
90
87
88
86
85
85
81
82
82
78
77
77
76
74
74
70
71
72
72
69
67
67
67
62
64
64
64
63
61
60
57
59
57
55
56
54
54
53
51
51
51
49
49
47
48
47
46
45
45
43
42
43
41
40
40
41
40
39
35
37
37
35
33
36
36
34
35
34
31
31
32
31
32
30
29
28
28
27
27
28
25
27
29
25
21
25
23
22
24
22
22
22
19
19
22
19
19
17
21
19
17
18
17
17
16
17
18
16
14
16
16
13
13
11
15
11
13
11
12
12
11
10
14
9
8
10
9
6
11
9
9
8
7
7
8
6
8
5
7
7
6
3
7
5
6
5
4
4
4
3
4
4
1
5
3
2
3
3
-1
-2
2
-1
1
-1
1
4
-3
0
-1
-3
-1
-5
-1
-1
0
-2
-1
-4
-2
-4
-1
-2
-5
-5
-3
-2
-5
-4
-5
-5
-4
-4
-4
-6
-7
-5
-4
-4
-6
-3
-6
-8
-6
-5
-4
-7
-7
-5
-7
-7
-10
-5
-7
-9
-8
-7
-8
-5
-8
-9
-7
-9
-8
-7
-6
-8
-8
-8
-9
-9
-8
-7
-8
-6
-8
-9
-9
-8
-12
-9
-12
-10
-8
-8
-8
-11
-10
-11
-10
-10
-10
-9
-11
-10
-6
-10
-9
-11
-10
-9
-12
-10
-11
-13
-10
-11
-10
-9
-11
-11
-10
-13
-12
-13
-12
-10
-11
-13
-13
-10
-12
-11
-11
-10
-14
-13
-13
-13
-13
-12
-13
-14
-12
-12
-11
-12
-13
-12
-14
-15
-10
-12
-12
-11
-12
-12
-14
-12
-12
-12
-13
-11
-13
-12
-13
-14
-13
-14
-13
-12
-15
-12
-13
-12
-13
-14
-14
-14
-17
-13
-15
-15
-14
-14
-15
-12
-17
-14
-14
-14
-13
-15
-14
-12
-15
-15
-13
-13
-13
-13
-14
-15
-14
-13
-15
-12
-17
-15
-14
-13
-15
-13
-14
-16
-17
-16
-14
-15
-14
-14
-14
-14
-15
-14
-14
-15
-15
-12
-16
-17
-13
-16
-16
-16
-13
-13
-12
-16
-15
-13
-15
-14
-14
-14
-17
-12
-13
-14
-14
-14
-16
-16
-17
-17
-16
-12
-15
-16
-17
-14
-15
-15
-14
-15
-14
-16
-15
-17
-15
-14
-15
-14
-16
-14
-13
-15
-17
-16
-17
-15
-15
-17
-15
-16
-14
-15
-16
-15
-17
-15
-14
-15
-15
-15
-15
-20
-101
-140
-156
-160
-160
-161
-162
-165
-165
-166
-166
-165
-166
-166
-162
-164
-167
-164
-166
-163
-168
-166
-166
-166
-167
-167
-165
-164
-169
-164
-167
-165
-167
-168
-166
-168
-167
-167
-165
-165
-168
-166
-168
-169
-164
-156
-143
-73
-27
-32
-54
-70
-62
-61
-67
-76
-84
-76
-73
-76
-92
-94
-82
-76
-67
-68
-64
-58
-48
-48
-54
-62
-65
-44
0
24
35
39
47
48
23
9
11
-1
-16
-13
3
45
43
4
-48
-109
-145
-159
-165
-125
-58
8
66
85
68
46
26
3
-12
-9
9
31
51
72
74
68
57
39
2
-12
-6
9
16
13
7
1
-4
-8
-15
-27
-34
-26
-17
-17
-13
-1
11
20
22
30
35
45
42
22
1
-16
-36
-32
-36
-41
-51
-44
-31
-6
5
11
14
8
-3
-5
-5
-10
-9
-2
3
3
-12
-34
-46
-52
-47
-42
-36
-34
-35
-32
-26
-24
-19
-19
-18
-14
-13
-4
-5
-4
-10
-11
-9
-12
-11
-10
-7
-22
-28
-24
-18
-16
-12
-8
-8
-9
-10
-6
-5
-4
-6
-5
-8
-10
-9
-4
-1
-2
0
-7
-1
-2
0
-5
-7
-10
-9
-8
-8
-34
-36
-34
-22
-18
-13
-8
-5
-6
-5
-6
0
-3
-1
-4
0
-5
-3
-5
-8
-9
-9
-7
0
1
-1
-4
-9
-9
-11
-10
-5
-11
-30
-52
-53
-37
-29
-20
-16
-15
-14
-11
-11
-10
-10
-10
-7
-7
-9
-8
-10
-9
-11
-9
-12
-8
-9
-7
-9
-15
-14
-14
-4
-7
-12
-35
-50
-49
-34
-25
-21
-15
-12
-13
-10
-9
-6
-9
-10
-8
-10
-12
-9
-11
-12
-8
-6
-6
-5
-7
-6
-3
-7
-9
-9
-11
-10
-17
-49
-57
-44
-31
-23
-18
-14
-10
-7
-8
-9
-6
-4
-7
-7
-8
-10
-10
-6
-7
-5
-2
-4
-7
-6
-6
-8
-8
-10
-13
-13
-18
-34
-32
-20
-16
-13
-10
-12
-10
-9
-9
-11
-10
-12
-10
-10
-11
-13
-8
-7
-4
-6
-6
-10
0
-4
-11
-8
-10
-9
-7
-6
-10
-32
-54
-49
-36
-25
-17
-10
-8
-6
-7
-6
-7
-4
-6
-5
-4
-5
-8
-9
-7
-6
-11
-2
-4
-9
-3
-12
-9
-3
-3
-10
-6
-11
-36
-73
-72
-55
-39
-24
-14
-11
-6
-8
-5
-6
-5
-5
-4
-2
-5
-5
-3
-8
-7
-3
-4
-5
-6
-3
-10
-4
-7
-10
-10
-4
-8
-14
-35
-67
-74
-54
-37
-27
-19
-9
-8
-4
0
1
5
9
8
9
2
-12
-16
3
48
192
647
1203
1500
1631
1694
1718
1733
1737
1742
1743
1743
1744
1741
1741
1742
1747
1743
1743
1743
1745
1741
1743
1745
1742
1744
1744
1743
1744
1746
1743
1742
1743
1744
1743
1741
1742
1743
1742
1745
1741
1741
1742
1743
1744
1744
1740
1743
1741
1743
1743
1743
1742
1741
1742
1743
1746
1741
1743
1742
1740
1743
1742
1742
1743
1744
1739
1740
1731
1715
1698
1680
1662
1649
1633
1618
1602
1589
1570
1555
1544
1532
1516
1499
1488
1473
1459
1445
1435
1420
1407
1397
1378
1369
1356
1341
1329
1320
1308
1292
1279
1270
1257
1246
1235
1222
1213
1201
1187
1177
1164
1156
1141
1131
1123
1112
1099
1091
1079
1072
1059
1049
1039
1030
1020
1012
1001
991
982
972
963
951
943
936
928
916
910
896
890
881
874
864
855
847
839
827
822
815
808
800
793
784
775
769
760
755
744
736
731
723
713
708
699
691
688
680
674
667
659
655
648
639
634
627
622
616
608
599
598
590
588
580
572
567
562
557
550
547
535
531
527
524
515
511
504
502
495
490
486
481
475
472
467
461
454
452
445
444
437
432
430
423
419
415
413
408
401
399
393
387
386
381
379
373
372
367
362
357
355
351
347
344
342
335
331
332
326
320
320
315
311
308
305
303
300
295
293
286
283
284
279
276
276
272
269
263
262
259
256
253
249
249
245
243
244
235
235
232
227
229
226
223
219
216
215
212
211
208
205
202
199
196
198
194
192
190
185
185
183
179
180
178
175
175
171
169
168
164
164
164
163
158
158
155
154
152
154
150
146
145
143
141
142
140
136
135
135
134
127
128
128
128
125
124
121
120
120
119
117
115
112
111
112
111
113
108
108
107
104
103
102
101
99
97
96
95
95
93
94
91
91
90
87
90
85
84
82
82
83
83
81
79
78
76
77
76
75
73
72
72
74
70
70
69
67
66
63
68
63
63
63
64
64
61
57
58
55
59
58
55
56
56
54
53
52
53
51
51
52
50
47
48
49
47
45
46
45
43
45
45
43
43
42
42
40
-41
288
984
1508
1736
1839
1888
1908
1921
1928
1928
1927
1932
1933
1930
1933
1932
1932
1932
1931
1860
1721
1583
1454
1339
1239
1148
1059
982
903
826
752
676
614
565
526
487
458
436
412
387
364
340
315
293
271
250
227
206
182
161
140
120
99
79
66
46
21
5
-5
-10
-11
-11
-13
-8
-12
-13
-14
-12
-15
-10
-11
-13
-11
-12
-14
-12
-13
-15
-14
-13
-15
-13
-14
-12
-16
-14
-9
-17
-20
-16
-13
-11
-19
-12
-12
-18
-10
-11
-14
-13
-19
-14
-16
-13
-13
-14
-15
-12
-18
-14
-20
-20
-17
-18
-18
-20
-19
-19
-20
-21
-19
-21
-20
-15
-18
-20
-16
-18
-17
-21
-22
-22
-17
-21
-19
-21
-21
-19
-20
-22
-20
-20
-20
-20
-21
-18
-18
-24
-23
-22
-21
-20
-21
-23
-20
-23
-20
-22
-24
-21
-20
-22
-24
-23
-21
-23
-21
-22
-24
-25
-23
-22
-23
-25
-24
-25
-25
-24
-24
-27
-24
-22
-24
-25
-25
-24
-24
-25
-25
-25
-26
-23
-27
-26
-27
-29
-28
-27
-29
-24
-26
-25
-26
-25
-28
-27
-27
-27
-30
-27
-26
-25
-28
-28
-26
-28
-27
-24
-29
-28
-25
-27
-28
-24
-28
-25
-24
-19
-25
-20
-22
-23
-20
-20
-22
-20
-22
-25
-21
-21
-23
-23
-23
-19
-24
-19
-25
-25
-18
-20
-18
-19
-20
-16
-16
-10
-14
-12
-10
-12
-13
-15
-11
-11
-14
-15
-12
-15
-12
-15
-16
-17
-13
-18
-16
-14
-16
-14
-13
-12
-15
-10
-14
-11
-10
-10
-12
-15
-13
-14
-12
-11
-11
-13
-10
-8
-12
-10
-12
-12
-10
-15
-11
-13
-12
-11
-12
-12
-10
-17
-9
-15
-14
-11
-13
-12
-13
-12
-12
-6
-12
-9
-11
-10
-13
-12
-9
-11
-8
-10
-15
-13
-11
-10
-10
-15
-10
-14
-8
-14
-13
-11
-13
-11
-9
-10
-8
-9
-15
-8
-10
-12
-11
-11
-8
-10
-12
-9
-8
-11
-11
-13
-10
-10
-13
-11
-10
-12
-13
-12
-14
-9
-15
-8
-13
-11
-5
-13
-10
-10
-13
-10
-10
-11
-10
-6
-12
-9
-9
-10
-10
-12
-9
-13
-9
-12
-7
-13
-10
-10
-14
-11
-11
-5
-13
-10
-7
-12
-8
-11
-10
-9
-10
-8
-12
-6
-9
-9
-10
-7
-11
-9
-8
-11
-9
-10
-12
-12
-10
-10
-13
-11
-9
-12
-8
-13
-11
-8
-12
-8
-12
-10
-13
-10
-12
-11
-8
-13
-8
-7
-6
-7
-9
-9
-8
-10
-12
-13
-8
-11
-11
-12
-12
-11
-8
-14
-10
-8
-15
-8
-13
-7
-10
-12
-7
-14
-12
-6
-13
-11
-8
-10
-10
-11
-9
-8
-8
-10
-13
-9
-9
-9
-12
-10
-12
-11
-8
-8
-11
-12
-13
-12
-8
-8
-13
-10
-9
-12
-10
-7
-14
-10
-8
-8
-8
-11
-12
-8
-12
-11
-12
-9
-11
-9
-9
-13
-10
-6
-10
-9
-12
-4
-15
-7
-11
-8
-11
-11
-9
-11
-9
-11
-12
-13
-10
-9
-8
-9
-9
-8
-10
-11
-8
-11
-10
-10
-11
-12
-7
-10
-9
-5
-13
-13
-7
-10
-14
-7
-6
-13
-5
-10
-10
-7
-12
-7
-10
-8
-9
-9
-11
-9
-10
-11
-11
-9
-9
-9
-10
-10
-8
-12
-9
-15
-9
-12
-6
-13
-9
-7
-10
-9
-10
-9
-10
-8
-10
-13
-7
-11
-8
-10
-11
-7
-10
-9
-6
-9
-8
-9
-11
-11
-8
-14
-6
-8
-12
-13
-9
-14
-6
-8
-16
-9
-9
-6
-2
-7
-10
-9
-9
-11
-11
-9
-11
-10
-8
-9
-8
-9
-10
-10
-9
-10
-10
-12
-12
-9
-10
-9
-17
-13
-10
-8
-9
-13
-12
-10
-9
-11
-8
-9
-8
-11
-8
-10
-10
-10
-11
-9
-10
-10
-11
-9
-8
-9
-13
-8
-10
-5
-13
-3
-12
-12
-5
-13
-10
-6
-12
-11
-11
-12
-10
-10
-10
-9
-8
-9
-12
-8
-8
-10
-8
-9
-10
-8
-13
-9
-4
-14
-13
-10
-6
-12
-6
-12
-11
-7
-12
-10
-6
-10
-12
-10
-9
-9
-13
-9
-8
-8
-8
-8
-9
-8
-10
-11
-9
-9
-11
-5
-8
-7
-13
-7
-12
-11
-7
-13
-12
-4
-12
-5
-10
-9
-13
-10
-10
-8
-8
-9
-8
-7
-13
-9
-7
-12
-9
-11
-7
-12
-10
-6
-5
-6
-13
-10
-7
-10
-12
-10
-9
-12
-6
-7
-9
-15
-10
-10
-8
-11
-9
-10
-9
-8
-10
-8
-9
-11
-9
-9
-10
-8
-9
-5
-14
-10
-14
-13
-8
-13
-7
-8
-3
-5
-9
-9
-8
-10
-9
-13
-10
-10
-9
-11
-12
-9
-10
-10
-9
-7
-10
-11
-10
-11
-8
-9
-13
-11
-13
-10
-11
-14
-6
-6
-8
-8
-15
-13
-4
-9
-10
-9
-10
-11
-10
-7
-8
-10
-9
-10
-9
-11
-9
-11
-9
-9
-9
-12
-4
-12
-8
-9
-13
-10
-7
-13
-7
-6
-13
-12
-7
-10
-10
-10
-12
-10
-9
-10
-9
-7
-11
-12
-10
-10
-9
-9
-10
-12
-4
-13
-5
-7
-12
-9
-13
-9
-17
-4
-14
-10
-8
-14
-10
-9
-11
-7
-11
-9
-7
-8
-9
-9
-10
-9
-9
-10
-11
-10
-8
-11
-6
-10
-4
-13
-9
-8
-14
-8
-12
-12
-10
-11
-6
-11
-8
-10
-11
-9
-10
-10
-8
-10
-10
-6
-10
-9
-8
-9
-8
-9
-10
-10
-7
-14
-8
-9
-13
-10
-5
-12
-11
-4
-12
-6
-9
-13
-10
-8
-14
-20
-25
-35
-36
-26
-20
-16
-15
-8
-13
-10
-12
-12
-13
-7
-11
-6
-6
-7
-4
-9
-4
-9
-4
-11
-12
-5
-8
-10
-13
-8
-10
-4
-9
-9
-14
-18
-24
-30
-35
-34
-25
-17
-16
-10
-11
-8
-6
-6
-9
-5
-7
-9
-9
-5
-7
-8
-12
-9
-6
-5
-9
-14
-7
-3
-8
-10
-8
-7
-6
-8
-11
-16
-18
-23
-32
-40
-48
-42
-30
-21
-16
-13
-9
-9
-5
-6
-6
-8
-8
-5
-9
-8
-7
-12
-4
-10
-5
-7
-12
-7
-6
-5
-8
-11
-10
-11
-6
-10
-7
-13
-17
-22
-31
-39
-44
-55
-43
-37
-25
-18
-10
-10
-8
-6
-6
-7
-7
-4
-4
-7
-4
-10
-3
-4
-10
-7
-9
-13
-8
-10
-12
-6
-12
-7
-11
-8
-9
-8
-8
-12
-22
-28
-37
-42
-55
-54
-39
-30
-18
-14
-9
-8
-8
-6
-5
-7
-5
-8
-6
-4
-8
-5
-6
-3
-9
-10
-11
-4
-9
-8
-6
-10
-4
-12
-8
-7
-12
-14
-29
-36
-9
32
63
88
85
85
74
63
54
43
32
25
15
6
-8
-18
-24
-35
-44
-53
-60
-66
-70
-72
-80
-72
-58
-38
-28
-19
-17
-14
-12
-11
-11
-8
-11
-7
-10
-10
-4
-7
-14
-8
-7
-13
-8
-12
-8
-9
-12
-6
-13
-11
-7
-6
-11
-13
-13
-21
-25
-33
-38
-49
-57
-61
-68
-73
-73
-53
-34
-22
-13
-8
-8
-2
-4
2
-2
-2
1
-3
-5
2
-3
-5
-4
-8
-8
-4
-4
-7
-8
-9
-8
-9
-5
-8
-11
-11
-9
-15
-17
-21
-28
-34
-36
-40
-45
-55
-58
-66
-71
-79
-80
-66
-46
-29
-18
-7
-5
-2
-2
-3
0
0
-2
-1
-2
1
2
1
-4
-6
-7
-5
-6
-5
-5
-2
-4
-5
-10
-12
-8
-8
-9
-10
-12
-18
-24
-26
-32
-37
-45
-48
-53
-54
-56
-57
-63
-54
-36
-25
-17
-12
-9
-5
-3
4
5
2
0
-1
-2
1
4
0
-2
-5
-5
-7
-3
-3
-2
-9
-4
-9
-9
-6
-8
-8
-11
-11
-15
-21
-23
-31
-36
-41
-46
-52
-58
-62
-67
-70
-73
-85
-84
-85
-93
-95
-83
-56
-39
-21
-8
-2
4
4
6
9
7
7
8
8
7
5
10
4
4
1
0
-2
-4
-9
-2
-3
1
-1
-1
0
-9
-9
-5
-9
-8
-10
-18
-23
-29
-33
-39
-40
-44
-49
-52
-54
-56
-59
-63
-64
-69
-72
-73
-76
-82
-84
-84
-85
-91
-89
-88
-92
-95
-95
-90
-72
-43
-20
-1
5
11
14
18
15
16
15
16
22
16
15
18
15
11
11
11
6
8
3
4
-1
-3
-3
-4
-5
-6
-5
-3
-6
-10
-12
-15
-19
-22
-28
-29
-32
-40
-41
-42
-46
-42
-40
-42
-45
-58
-72
-64
-44
-29
-18
-10
-5
6
7
6
6
4
6
5
5
2
1
1
5
4
0
2
-1
0
-1
-4
-6
-7
-3
-9
-2
-9
-9
-7
-8
-8
-17
-18
-22
-26
-30
-35
-39
-43
-46
-48
-49
-56
-57
-60
-61
-66
-61
-65
-69
-68
-69
-68
-72
-75
-77
-73
-76
-75
-76
-75
-76
-75
-76
-74
-78
-75
-76
-79
-80
-80
-81
-82
-83
-85
-82
-80
-79
-77
-80
-79
-75
-76
-72
-74
-73
-73
-79
-76
-77
-78
-80
-80
-79
-77
-76
-73
-75
-79
-78
-74
-75
-75
-75
-72
-68
-69
-66
-66
-69
-69
-67
-68
-64
-61
-61
-59
-62
-59
-59
-58
-57
-56
-57
-61
-61
-62
-63
-62
-63
-60
-61
-60
-58
-53
-52
-51
-49
-49
-48
-48
-50
-48
-49
-44
-43
-45
-41
-40
-35
-30
-27
-22
-26
-15
12
34
49
59
66
69
74
77
76
76
72
68
68
65
65
63
58
57
50
44
39
36
29
26
23
21
18
16
14
8
7
4
-4
-10
-12
-10
-12
-13
-14
-20
-23
-20
-27
-30
-32
-34
-29
-33
-32
-34
-35
-34
-33
-30
-32
-36
-37
-40
-36
-41
-37
-36
-36
-34
-36
-37
-35
-32
-32
-34
-40
-39
-40
-35
-39
-39
-38
-36
-32
-35
-34
-35
-34
-36
-35
-33
-30
-29
-31
-30
-32
-29
-29
-28
-30
-29
-32
-32
-35
-35
-28
-26
-33
-33
-29
-29
-27
-27
-31
-31
-31
-31
-28
-29
-25
-23
-23
-28
-29
-22
-20
-22
-23
-25
-18
-25
-24
-22
-19
-24
-20
-25
-27
-29
-33
-32
-30
-24
-30
-25
-20
-19
-15
-15
-17
-20
-18
-16
-12
-12
-13
-12
-13
-12
-7
3
4
-2
-11
-26
-50
-66
-61
-36
-4
12
27
37
36
40
38
38
38
34
36
33
36
32
34
31
29
23
18
18
20
15
10
7
6
6
7
2
1
-3
2
5
2
-6
-10
-10
-8
-8
-4
-9
-13
-14
-15
-15
-13
-19
-21
-18
-15
-15
-16
-18
-20
-20
-19
-14
-16
-16
-16
-18
-16
-17
-14
-17
-14
-18
-18
-21
-22
-23
-20
-24
-16
-19
-21
-23
-20
-19
-22
-18
-17
-19
-18
-18
-15
-20
-20
-22
-21
-23
-24
-24
-21
-19
-17
-18
-16
-21
-19
-14
-12
-12
-13
-18
-16
-16
-13
-13
-14
-14
-11
-12
-17
-12
-10
-9
-15
-9
-11
-9
-10
-12
-14
-17
-19
-20
-20
-22
-25
-22
-20
-17
-17
-21
-15
-13
-11
-11
-13
-12
-11
-9
-13
-13
-9
-8
-7
-7
0
1
-1
-8
-19
-40
-65
-90
-98
-74
-43
-20
2
7
13
14
17
15
12
12
13
12
13
13
16
11
8
9
9
5
3
5
6
0
-3
-6
-5
0
-6
-7
-7
-10
-9
-9
-12
-12
-14
-17
-14
-18
-20
-20
-22
-21
-24
-24
-25
-24
-23
-19
-21
-21
-25
-22
-25
-22
-25
-25
-27
-26
-23
-20
-23
-19
-19
-19
-20
-22
-20
-18
-19
-20
-23
-21
-18
-18
-16
-19
-18
-18
-18
-17
-16
-14
-11
-12
-13
-12
-12
-9
-10
-8
-10
-10
-10
-13
-13
-9
-9
-8
-7
-9
-7
-8
-11
-6
-5
-6
-5
-5
-8
-4
-9
-6
-6
-7
-8
-3
-1
-3
-8
-6
-7
-3
-5
-9
-11
-18
-14
-15
-18
-21
-20
-20
-15
-10
-9
-8
-2
-3
-2
-2
-4
-4
-5
-4
-5
-4
-4
-3
3
4
7
4
-9
-26
-47
-75
-105
-117
-97
-59
-29
-12
-4
5
6
8
9
12
12
10
8
7
5
5
6
8
0
1
2
-2
4
4
2
1
-2
-5
-4
-7
-7
-6
-8
-8
-8
-9
-10
-9
-9
-9
-9
-11
-13
-12
-13
-12
-12
-10
-11
-8
-11
-11
-10
-12
-14
-11
-11
-7
-7
-7
-5
-3
-6
-9
-13
-9
-12
-12
-12
-16
-18
-16
-16
-15
-14
-11
-12
-10
-8
-10
-9
-9
-9
-9
-8
-10
-6
-5
-10
-10
-9
-7
-6
-7
-8
-12
-12
-8
-3
-7
-5
-8
-9
-6
-4
-3
-5
-9
-11
-12
-10
-9
-5
-8
-6
-8
-12
-15
-8
-6
-6
-8
-12
-13
-12
-13
-16
-17
-19
-24
-23
-26
-27
-28
-29
-22
-21
-21
-19
-21
-17
-16
-15
-13
-17
-14
-15
-17
-14
-10
-11
-7
-4
1
-2
-6
-21
-37
-59
-89
-114
-142
-156
-139
-94
-44
-13
3
13
15
17
16
10
8
6
6
0
-3
0
1
4
-3
-4
-5
-1
-2
-1
4
4
2
2
4
4
2
1
-3
-7
-6
-9
-10
-10
-9
-9
-4
-5
-5
-2
-2
1
2
1
-1
-2
-5
-3
-2
-4
-3
2
-1
3
5
5
8
4
2
3
0
-3
-3
1
4
2
-1
3
-2
1
1
-6
-4
0
-5
-2
-2
2
-2
-3
-4
-4
-2
-6
-9
-5
2
2
0
-3
-4
-3
-2
-4
-10
-8
-8
-6
-7
-8
-10
-5
-7
1
0
0
2
-1
-1
-2
-5
-7
-4
-4
-8
-5
0
-4
-8
-8
-13
-14
-15
-11
-11
-14
-8
-12
-16
-20
-20
-19
-19
-14
-10
-11
-11
-10
-4
-3
-5
-5
-3
-2
-5
-3
-3
0
0
0
2
4
7
13
7
-6
-17
-37
-60
-87
-112
-137
-152
-129
-85
-41
-9
12
27
34
36
35
31
27
23
23
27
26
23
19
22
17
12
15
17
19
20
17
11
10
9
11
15
11
10
3
3
-3
-2
-1
-1
-3
3
-2
-6
-4
-1
-4
5
-5
-9
-7
-2
1
3
10
3
2
2
3
2
3
6
4
4
6
7
2
2
-1
5
4
-2
-5
-10
-5
-5
-4
-5
2
8
5
-6
-11
-8
-2
0
2
-6
-10
-7
-7
-4
-1
3
8
9
4
1
0
-3
-2
-1
2
8
2
1
-3
-2
2
-3
-5
-3
-4
0
-2
-9
-12
-13
-9
-6
-8
-14
-16
-13
-12
-11
-11
-10
-10
-8
-9
-6
-7
-11
-11
-10
-8
-12
-14
-17
-17
-16
-16
-12
-10
-16
-15
-14
-13
-12
-15
-13
-8
-8
-9
-10
-12
-14
-14
-17
-11
-10
-8
-7
-2
-9
-26
-41
-64
-88
-114
-141
-157
-142
-95
-48
-11
5
16
21
26
28
20
19
19
20
16
18
16
11
11
8
13
18
18
7
4
-2
-2
0
-3
-7
-12
-13
-17
-14
-15
-13
-16
-18
-17
-19
-25
-27
-27
-25
-27
-23
-23
-23
-23
-22
-24
-23
-19
-16
-17
-16
-16
-19
-18
-19
-19
-21
-18
-21
-21
-23
-22
-21
-17
-17
-17
-16
-18
-24
-21
-20
-18
-16
-17
-14
-13
-10
-12
-11
-10
-9
-5
-5
-9
-10
-10
-9
-4
-3
2
3
1
4
3
5
10
11
7
7
3
4
1
5
7
7
13
13
11
10
9
6
8
3
2
3
1
1
3
3
5
9
12
7
9
11
14
8
-1
-8
-13
-8
-9
-14
-7
0
-3
-1
-1
-2
-6
-6
-4
-2
0
4
4
3
3
5
6
3
8
11
12
10
1
-17
-42
-72
-101
-130
-154
-153
-112
-58
-18
8
18
23
29
28
22
23
26
23
20
19
22
20
20
17
14
10
12
12
15
19
20
17
17
15
13
13
8
12
10
7
7
3
-1
2
6
7
3
2
6
6
-1
-3
-1
-3
1
8
5
8
3
2
3
4
8
4
2
8
9
7
4
-3
-3
2
1
4
6
-1
-3
0
-4
-3
-4
0
-4
-6
-6
-7
-8
-5
-8
-8
-9
-11
-9
1
-10
-9
-3
-4
-2
2
-1
3
4
3
3
5
6
4
5
4
3
7
4
4
3
8
2
0
-2
3
-2
-5
-3
-5
-1
-2
2
-5
-6
-7
-6
-10
-5
-10
-9
-11
-16
-16
-14
-22
-25
-20
-23
-23
-16
-14
-18
-12
-15
-12
-12
-11
-16
-17
-14
-16
-12
-12
-19
-12
-10
-9
-12
-20
-37
-53
-78
-103
-133
-155
-160
-137
-93
-51
-23
-8
-2
3
3
-3
-4
-4
-2
-3
-5
-4
-5
-4
-4
-11
-13
-15
-14
-12
-15
-15
-13
-10
-17
-16
-15
-16
-14
-15
-11
-9
-10
-10
-11
-13
-12
-9
-2
-3
-2
0
-1
-4
0
4
-1
-1
2
-1
5
7
9
7
8
10
10
8
7
6
-1
-4
-4
-7
-11
-12
-12
-17
-14
-14
-17
-15
-15
-14
-17
-16
-20
-18
-16
-15
-13
-8
-7
-6
-1
2
0
5
3
7
10
9
13
15
17
21
20
20
25
20
21
18
20
19
17
15
16
12
11
12
12
15
9
6
7
3
3
1
-2
-3
-5
-6
-7
-12
-11
-21
-23
-22
-19
-14
-14
-15
-8
-8
-8
-7
-7
-7
-7
-13
-11
-13
-13
-8
-7
-8
0
0
-6
-12
-30
-50
-72
-95
-123
-146
-153
-123
-73
-29
-5
10
15
19
19
20
14
14
15
14
15
9
12
14
12
13
9
12
13
10
12
11
5
8
3
5
7
6
6
-3
4
-3
-3
-2
0
-2
2
-3
-1
0
3
-1
2
1
-1
4
5
9
8
7
7
10
12
10
14
8
8
9
5
3
-1
2
1
-7
-7
-10
-9
-8
-7
-4
-4
-2
-6
-12
-7
-6
0
5
3
2
0
-1
5
4
1
1
1
3
8
5
6
10
14
14
10
10
5
14
13
11
8
10
13
10
14
17
14
17
14
12
18
16
15
16
14
12
12
10
7
8
4
2
8
4
4
12
11
10
10
15
17
17
14
14
13
11
16
9
5
6
7
6
5
7
12
10
-4
-22
-48
-75
-103
-126
-151
-138
-89
-47
-12
13
20
17
22
16
18
22
17
20
20
17
11
12
14
7
7
7
6
5
5
6
5
6
7
4
6
5
1
6
7
5
9
5
8
5
5
8
6
7
5
7
2
6
6
2
8
8
8
9
10
17
11
7
6
6
7
5
3
3
4
-3
-4
-3
-6
-2
1
-7
-13
-5
-1
-8
-9
-7
-5
-4
4
-4
-5
-5
1
-3
-6
-9
-9
-9
-3
-8
-7
-5
-3
-5
-7
-10
-3
0
-7
-9
-4
-9
-7
-6
-7
-5
-3
-5
-9
-9
-9
-9
-8
-8
-12
-11
-12
-18
-20
-19
-23
-20
-20
-18
-13
-11
-5
-8
-7
-7
-10
-12
-6
-8
-13
-4
-8
-6
1
1
-3
-2
-1
-1
-16
-33
-58
-88
-116
-141
-163
-145
-89
-35
5
25
24
22
21
17
8
11
7
12
12
3
0
-1
-1
2
-2
4
3
-2
-7
-7
-8
-8
-11
-11
-14
-13
-13
-19
-15
-16
-20
-18
-20
-20
-19
-23
-16
-17
-21
-18
-18
-19
-20
-21
-21
-18
-18
-19
-13
-8
-17
-20
-20
-19
-22
-21
-25
-22
-22
-18
-18
-20
-17
-16
-16
-12
-14
-14
-18
-14
-16
-12
-10
-8
-10
-13
-12
-14
-12
-12
-11
-10
-17
-14
-13
-17
-17
-17
-20
-16
-15
-19
-16
-11
-16
-19
-18
-19
-18
-16
-17
-18
-18
-14
-18
-13
-17
-19
-16
-20
-20
-26
-27
-33
-31
-35
-31
-29
-23
-19
-18
-15
-17
-17
-17
-17
-11
-15
-13
-11
-9
-14
-11
-12
-10
-7
-5
-9
-13
-29
-49
-68
-88
-112
-122
-112
-73
-24
16
36
40
43
36
34
29
25
29
28
26
30
30
22
22
15
13
9
6
7
5
7
0
2
-2
-5
-13
-7
-14
-11
-20
-18
-22
-21
-22
-25
-24
-28
-27
-26
-24
-28
-26
-24
-26
-23
-24
-27
-24
-20
-21
-21
-17
-25
-18
-18
-22
-15
-16
-14
-15
-14
-11
-12
-11
-12
-11
-11
-10
-10
-9
-16
-15
-16
-18
-20
-16
-14
-11
-13
-9
-10
-9
-9
-7
-9
-9
-8
-10
-15
-19
-22
-23
-18
-19
-21
-17
-21
-21
-17
-19
-20
-17
-20
-20
-19
-17
-19
-18
-22
-24
-25
-30
-34
-28
-25
-23
-21
-16
-16
-12
-10
-10
-13
-13
-9
-10
-4
-3
-13
-11
-8
-5
6
11
3
-7
-20
-41
-63
-87
-114
-135
-134
-100
-51
-17
10
23
36
39
45
39
29
19
17
16
22
26
23
24
21
19
17
22
20
22
22
22
15
15
8
7
4
7
9
6
6
8
9
13
17
17
15
13
5
-2
-2
3
8
10
16
14
18
24
23
27
26
30
30
24
24
18
20
22
20
20
18
19
17
19
16
13
13
14
17
14
19
20
21
23
23
26
24
27
28
32
40
40
40
41
44
46
48
52
59
61
69
69
67
59
60
46
40
37
31
26
8
-4
-9
-9
-18
-25
-23
-30
-30
-34
-43
-47
-51
-48
-47
-48
-42
-38
-37
-35
-32
-30
-34
-28
-27
-33
-38
-40
-32
-35
-23
-19
-17
-20
-24
-37
-56
-84
-112
-143
-156
-144
-102
-58
-21
-6
9
15
14
13
14
8
13
8
12
8
9
5
6
-2
1
2
5
5
5
6
7
13
11
13
8
5
1
5
2
-2
-6
-5
-1
1
6
3
11
10
15
9
9
15
18
17
10
15
18
17
16
15
14
16
20
16
16
15
15
15
13
14
8
9
5
5
5
1
5
1
3
3
6
6
8
6
7
2
6
1
2
0
-5
-1
0
-4
-5
-7
-10
-6
-6
-3
-5
0
-4
1
-4
-3
-1
-4
-5
2
3
4
-5
-8
-13
-12
-17
-18
-20
-25
-25
-23
-18
-15
-19
-17
-16
-16
-11
-16
-17
-18
-14
-16
-13
-16
-15
-11
-9
1
3
-5
-4
-24
-49
-74
-106
-132
-162
-162
-128
-77
-32
-7
8
9
12
13
9
6
5
4
3
6
8
4
4
0
-8
-12
-14
-13
-13
-15
-17
-18
-12
-14
-19
-20
-20
-23
-22
-25
-27
-29
-31
-29
-30
-28
-28
-27
-27
-24
-26
-24
-20
-21
-21
-21
-19
-18
-19
-21
-23
-24
-23
-25
-24
-24
-23
-27
-26
-25
-26
-28
-26
-27
-25
-20
-19
-15
-16
-17
-17
-11
-15
-17
-19
-20
-23
-24
-24
-25
-27
-26
-27
-24
-25
-26
-22
-17
-18
-19
-17
-18
-12
-12
-10
-10
-13
-8
-9
-4
-5
-9
-7
-9
-5
-9
-12
-19
-18
-17
-9
-4
-5
2
5
12
10
9
4
4
6
7
8
4
6
4
10
12
19
21
20
3
-12
-37
-64
-95
-121
-151
-150
-114
-58
-18
15
25
34
35
37
33
33
27
24
22
22
25
20
18
17
16
21
14
16
16
15
18
18
22
18
14
9
10
10
10
4
4
7
8
6
11
8
9
5
6
11
11
11
11
15
13
13
15
14
15
17
15
22
21
24
22
17
10
9
7
12
11
7
6
-1
4
3
5
8
8
7
2
7
10
16
14
9
7
6
3
4
6
-1
1
2
-1
0
3
-1
7
2
0
0
-4
-1
8
6
5
-1
-3
2
3
-1
-6
-4
-9
-6
-6
-8
-17
-13
-14
-12
-10
-10
-11
-6
1
-1
1
-2
-2
-1
1
4
8
8
9
3
-2
6
12
14
13
3
-17
-40
-65
-93
-119
-140
-131
-96
-47
-12
9
16
25
26
26
23
20
21
15
17
12
11
14
13
10
10
12
8
6
5
5
5
2
3
2
-7
-9
-8
-8
-10
-10
-11
-12
-8
-13
-8
-8
-11
-12
-11
-12
-13
-9
-8
-9
-6
-3
-3
-4
-3
-1
-5
-5
0
-1
0
0
2
-5
-4
-4
-6
-5
1
0
1
-1
2
-2
-3
1
2
0
0
0
-1
1
-4
-1
-2
-2
-3
1
0
-4
-4
-9
-7
-7
-4
-3
-4
-8
-8
-5
-5
-6
-4
-7
-6
-4
-3
-7
-10
-7
-6
-10
-14
-17
-18
-21
-18
-23
-21
-19
-11
-8
-9
-9
-9
-6
-4
-8
-7
-11
-13
-11
-11
-9
-4
-1
7
8
8
-5
-23
-44
-70
-101
-126
-147
-137
-97
-50
-18
2
11
15
17
19
18
17
15
11
12
10
12
11
7
9
4
5
4
0
1
2
4
4
2
0
-1
-2
-7
-5
-9
-7
-5
-2
-3
-5
-9
-7
-7
-8
-8
-11
-13
-7
-5
-6
-7
-4
-3
-2
-2
-2
-2
-2
-4
-7
-7
-8
-9
-7
-7
-8
-10
-8
-9
-11
-11
-11
-8
-8
-7
-7
-9
-8
-8
-11
-10
-9
-11
-11
-8
-7
-11
-13
-15
-16
-10
-10
-10
-10
-14
-13
-13
-16
-12
-10
-12
-12
-13
-12
-11
-12
-10
-5
-6
-8
-9
-12
-10
-12
-12
-18
-15
-16
-18
-19
-19
-18
-15
-15
-9
-11
-8
-9
-9
-8
-8
-10
-9
-10
-6
-8
-9
0
2
5
8
5
-11
-26
-47
-74
-100
-130
-149
-141
-96
-50
-18
4
19
22
23
25
21
21
24
17
15
16
11
12
11
10
7
7
14
11
9
10
5
5
5
5
4
1
-1
-3
-2
-1
-1
-4
-5
-2
-4
-3
-4
-5
-2
-4
-2
-3
-4
-1
-3
3
1
6
4
6
5
4
3
6
4
1
1
0
-1
-4
-4
-4
-3
-6
-4
-7
-8
-7
-7
-7
-4
-3
-5
-3
3
-2
0
-5
-7
-1
-3
-5
-3
-4
-3
-5
-6
-7
-6
-5
-4
-5
-4
0
-5
-7
-3
-2
-2
0
2
-3
-2
2
3
3
0
-4
-5
-7
-9
-14
-15
-13
-15
-14
-13
-8
-9
-8
-5
-7
-8
-5
-7
-5
-5
-2
-1
4
-3
-3
0
4
8
8
2
-11
-28
-54
-78
-110
-137
-153
-141
-98
-52
-19
4
15
21
25
25
24
20
17
17
17
16
14
12
11
13
12
13
10
7
6
3
5
7
5
6
1
-1
2
0
-2
-5
-3
-2
-3
-2
-1
-5
-2
-3
-3
-2
-5
-6
-3
2
0
-2
1
-1
-1
-2
-2
1
-1
0
-2
-2
-3
-2
0
-3
-4
-8
-9
-10
-10
-6
-9
-6
-6
-7
-11
-10
-15
-15
-15
-11
-7
-7
-8
-5
-7
-5
-4
-6
-5
-9
-8
-4
-4
-5
-9
-5
-5
-8
-12
-10
-15
-10
-12
-8
-9
-8
-6
-7
-4
-9
-5
-3
-5
-3
-5
-2
2
-2
-6
-8
-12
-17
-16
-12
-11
-11
-5
-3
1
0
2
2
-1
2
3
3
6
6
5
8
9
12
13
17
10
3
-15
-41
-64
-95
-127
-146
-145
-107
-56
-17
10
21
30
33
32
36
31
30
27
24
20
19
19
17
18
18
18
15
14
16
11
7
8
8
11
10
6
4
0
1
-5
-1
-1
-5
-4
-1
-2
-5
-7
-6
-3
-3
-3
0
0
-4
-8
-8
-5
-6
-6
-3
-2
-4
-2
-6
-3
-2
-2
-4
-3
-6
-9
-12
-11
-12
-14
-8
-7
-6
-7
-13
-15
-20
-21
-22
-22
-19
-16
-12
-12
-15
-10
-8
-9
-9
-13
-9
-11
-9
-8
-8
-11
-8
-5
-9
-9
-8
-6
-11
-11
-8
-7
-8
-9
-8
-8
-7
-6
-3
0
-3
0
-4
-4
-7
-9
-7
-11
-14
-17
-17
-18
-18
-21
-20
-20
-16
-13
-12
-13
-11
-7
-7
-10
-9
-3
-8
-8
-13
-12
-9
-4
0
5
8
4
-8
-24
-48
-81
-111
-144
-167
-157
-114
-62
-27
-3
14
22
24
23
30
26
19
18
18
19
17
15
15
14
9
6
6
11
7
7
8
6
3
0
4
4
1
-4
-4
-2
-5
-8
-2
-4
-6
-7
-5
-5
-4
-4
-3
-6
-4
-3
-2
-2
-2
3
1
1
3
3
3
3
4
1
-1
1
-5
-9
-8
-7
-8
-12
-9
-10
-11
-10
-9
-11
-14
-10
-10
-11
-7
-6
-8
-7
-5
-6
-7
-6
-5
-7
-5
-6
-8
-3
-4
-7
-6
-9
-5
-6
-5
-7
-7
-7
-9
-9
-10
-9
-7
-7
-4
-9
-8
-4
-6
-7
-7
-8
-10
-10
-11
-12
-17
-17
-17
-16
-19
-18
-17
-11
-9
-11
-10
-9
-11
-11
-8
-4
-8
-9
-6
-8
-4
-2
-1
4
8
10
5
-9
-24
-52
-84
-115
-148
-160
-138
-90
-37
-9
12
19
28
31
31
31
29
30
30
27
22
20
17
16
16
17
16
11
12
12
14
12
10
11
10
12
10
6
4
3
2
-1
-4
-1
0
-2
-1
1
1
-3
-2
-5
4
4
6
8
4
4
5
4
3
8
8
6
7
6
3
4
4
2
0
-3
-3
-3
-1
-9
-5
-3
-7
-6
-7
-7
-5
-2
-2
-7
-5
-4
-4
-5
-4
-5
-3
-2
-2
-5
-4
-1
-2
-5
-5
-7
-5
-3
-2
-4
-4
-2
-2
-1
-4
0
-3
0
1
1
4
1
2
1
1
3
0
-3
-6
-6
-8
-7
-10
-11
-14
-10
-9
-2
-4
-3
0
-2
-2
-2
-5
-3
0
-5
-3
-3
-3
4
5
9
14
9
-4
-22
-45
-67
-99
-130
-152
-149
-110
-60
-22
4
19
25
26
29
25
28
22
22
22
19
21
21
18
19
17
14
8
12
12
7
6
12
7
8
5
4
3
4
3
1
2
2
-1
0
-2
-6
-2
-1
-4
-5
-5
-6
-3
-4
-6
-2
-2
-4
-4
-4
-8
-2
-3
-4
-6
-4
-8
-10
-11
-10
-10
-11
-16
-10
-14
-14
-12
-17
-11
-10
-13
-13
-11
-12
-11
-11
-11
-13
-13
-12
-14
-12
-11
-14
-18
-14
-12
-15
-13
-13
-14
-13
-11
-13
-14
-12
-14
-19
-15
-16
-13
-13
-14
-11
-18
-15
-13
-8
-10
-12
-17
-18
-17
-19
-22
-24
-28
-31
-25
-24
-20
-20
-21
-20
-19
-19
-19
-14
-15
-18
-18
-17
-18
-19
-19
-14
-12
-7
-4
-5
-14
-28
-43
-72
-99
-129
-153
-156
-126
-80
-36
-10
7
12
15
19
18
13
12
11
12
13
10
10
5
6
6
7
5
2
-1
3
3
2
-4
0
-3
-2
-2
-4
-3
-3
-5
-9
-8
-7
-9
-8
-12
-11
-6
-9
-8
-7
-9
-7
-6
-7
-5
-4
-3
0
0
0
3
4
2
0
5
3
3
4
0
-4
-3
-5
-3
-2
-5
-6
-7
-7
-5
-4
0
-3
1
-2
-2
-6
-3
-4
-3
-6
-3
0
-5
-4
-2
-2
0
-1
0
1
2
2
4
3
1
1
5
4
6
4
6
8
5
3
6
4
5
5
4
1
-2
-6
-7
-6
-11
-13
-9
-8
-7
-2
-1
5
-1
4
4
4
1
1
1
2
2
4
5
6
12
16
18
14
3
-16
-41
-58
-86
-121
-139
-135
-104
-53
-16
9
24
29
30
30
31
29
24
26
25
21
18
18
17
14
16
14
12
13
11
11
11
8
8
7
6
4
4
3
3
4
3
2
-1
1
0
-5
-2
-1
-5
-4
-4
-2
0
0
-2
1
1
0
4
1
-1
2
1
-1
1
2
-5
-6
-6
-13
-8
-12
-9
-11
-12
-12
-12
-15
-14
-17
-14
-17
-17
-17
-15
-12
-15
-15
-18
-16
-15
-12
-12
-11
-9
-11
-13
-13
-16
-13
-12
-10
-8
-7
-7
-8
-11
-7
-10
-12
-8
-8
-5
-7
-5
-5
-6
-5
-3
-6
-6
-9
-5
-10
-13
-14
-17
-17
-16
-18
-15
-12
-14
-10
-10
-10
-9
-8
-8
-8
-4
-5
-4
-7
-6
-4
-5
2
4
7
6
-5
-21
-41
-69
-92
-123
-147
-150
-120
-75
-34
-6
10
18
20
24
26
25
26
25
24
24
24
24
22
18
18
17
14
12
14
12
16
10
8
5
5
6
6
6
5
4
5
3
0
2
-3
-3
-4
-5
-2
1
0
2
-1
1
6
3
2
5
6
6
4
5
8
8
8
3
6
3
2
-2
-4
-7
-8
-9
-9
-6
-12
-8
-10
-7
-8
-10
-12
-8
-6
-7
-7
-9
-6
-6
-8
-8
-6
-8
-6
-6
-3
-4
-5
-6
-2
-6
-5
-6
-1
-4
-6
-3
-2
0
-2
0
4
1
-1
3
6
2
2
3
3
1
-3
3
0
-5
-13
-10
-14
-13
-12
-14
-11
-7
-6
-7
-6
-8
-9
-7
-8
-6
-7
-7
-7
-8
-9
-5
3
7
7
-4
-17
-35
-56
-85
-115
-140
-154
-128
-82
-37
-7
9
19
23
25
19
21
19
20
19
20
14
14
16
19
14
14
11
11
9
7
6
7
7
8
3
3
2
3
-2
0
-5
-3
-2
-1
0
0
0
-2
-4
-2
-2
-5
-5
-7
-3
-2
0
2
-2
0
1
0
2
2
2
2
4
0
-3
-6
-7
-4
-8
-10
-10
-6
-8
-10
-12
-9
-7
-5
-8
-10
-4
-3
1
0
-5
0
3
2
5
2
1
0
0
4
2
7
3
1
3
5
1
-1
4
1
2
8
3
8
4
3
0
1
3
-5
1
-4
-1
-5
-8
-9
-8
-16
-17
-16
-17
-18
-16
-13
-14
-8
-6
-9
-6
-7
-7
-12
-10
-9
-11
-10
-10
-9
-6
-6
-4
2
-7
-14
-33
-56
-87
-120
-139
-153
-136
-101
-54
-21
-3
8
14
15
16
15
14
9
5
6
6
6
2
1
1
-1
-2
-4
-4
-6
-9
-8
-12
-14
-8
-8
-13
-14
-15
-14
-13
-18
-17
-16
-17
-14
-15
-18
-17
-16
-13
-14
-13
-13
-12
-9
-8
-6
-11
-6
-4
-4
-4
-9
-7
-8
-9
-8
-7
-7
-8
-12
-16
-13
-14
-13
-14
-15
-10
-12
-10
-10
-10
-9
-6
-8
-3
-5
-7
-5
-6
-9
-11
-10
-6
-6
-8
-4
-9
-8
-8
-8
-8
-6
-4
-6
0
0
-4
-3
-6
-8
-6
-5
-5
-4
-2
-2
-1
1
2
1
-5
-6
-9
-12
-13
-17
-17
-20
-15
-15
-10
-11
-9
-10
-9
-13
-9
-10
-7
-7
-7
-8
-11
-13
-11
-6
-4
5
9
4
-8
-24
-44
-65
-93
-123
-151
-154
-125
-81
-40
-14
3
14
21
20
15
16
22
24
20
17
18
14
16
14
13
12
13
12
9
7
8
8
8
3
5
6
6
4
2
2
4
6
3
1
0
-4
1
-2
3
0
-5
-6
-4
-1
1
-5
0
4
8
8
6
5
5
4
6
3
2
2
4
-3
-2
-4
-8
-6
-2
-9
-8
-8
-13
-7
-3
-5
-7
-7
-8
-8
-6
-6
-8
-6
-4
-2
-4
-6
-3
-4
-1
-4
-3
-2
-3
-1
0
-3
-3
-4
-2
3
4
-2
0
1
2
2
0
0
5
6
4
4
4
-3
1
-5
-8
-5
-7
-11
-8
-8
-4
4
2
4
3
5
4
4
8
6
3
8
5
8
5
10
12
15
16
15
8
-4
-27
-45
-80
-107
-132
-144
-120
-79
-37
-6
17
22
28
31
33
32
31
32
32
28
25
28
25
24
24
24
20
18
20
14
13
11
7
11
6
3
5
2
3
3
2
2
1
-1
-1
4
2
-1
-3
-2
-4
-3
0
-3
0
-2
-4
-1
-1
3
2
3
3
4
3
3
1
-3
-6
-7
-7
-10
-11
-13
-10
-15
-14
-13
-8
-14
-12
-12
-13
-16
-13
-14
-12
-11
-13
-10
-8
-14
-15
-13
-10
-12
-9
-12
-11
-8
-6
-7
-5
-9
-8
-9
-11
-10
-9
-7
-9
-5
-7
-7
-7
-4
-6
-7
-6
-9
-12
-14
-16
-15
-17
-18
-20
-21
-18
-16
-17
-10
-10
-8
-11
-8
-11
-13
-12
-10
-15
-13
-10
-9
-9
-5
1
3
5
2
-6
-23
-50
-71
-99
-127
-148
-143
-104
-65
-26
-3
10
16
21
23
22
24
23
22
24
22
23
19
17
14
13
10
10
9
12
10
9
6
5
3
4
2
-1
4
-1
-3
2
-7
-6
-5
-7
-7
-7
-6
-11
-4
-5
-2
-5
-9
-9
-6
-7
-5
-5
-3
2
-3
3
3
2
-5
-4
0
-5
-6
-4
-9
-7
-10
-13
-16
-12
-9
-8
-9
-9
-11
-10
-8
-8
-7
-3
-9
-8
-8
-4
-2
-4
-3
-2
1
-1
-3
0
-5
-4
0
-5
-2
3
0
4
2
-1
1
-2
-1
-1
3
3
2
-1
-1
-2
-6
-7
-10
-12
-12
-15
-13
-14
-13
-10
-8
-6
-9
-5
-10
-9
-8
-9
-8
-6
-9
-8
-9
-8
-8
-4
-1
3
4
-4
-18
-41
-64
-93
-119
-141
-148
-121
-74
-35
-10
0
13
14
20
15
15
13
10
12
12
8
8
7
5
12
8
10
8
5
4
3
-1
1
1
4
-3
-5
-4
-4
-7
-1
-2
-6
-9
-9
-6
-3
-5
-4
-7
-4
0
-1
-7
-2
-3
-2
2
1
4
6
5
3
2
-2
3
-2
-2
0
-4
0
-5
-7
-7
-8
-9
-13
-13
-16
-15
-13
-10
-10
-5
-9
-9
-6
-7
-6
-12
-11
-12
-14
-15
-12
-9
-8
-7
-4
-7
-7
-7
-5
-4
-6
-11
-11
-9
-7
-4
-8
-7
-9
-4
-6
-2
-4
-6
-7
-8
-11
-12
-13
-17
-18
-19
-20
-19
-14
-14
-10
-11
-10
-13
-14
-14
-9
-8
-4
-6
-9
-9
-8
-4
0
1
5
6
0
-9
-22
-42
-62
-91
-121
-143
-144
-109
-56
-24
-2
15
23
27
27
28
26
26
24
25
26
25
28
25
24
20
19
17
20
16
16
14
13
13
11
14
16
12
11
6
8
7
8
6
7
6
4
6
9
4
6
10
5
6
4
4
8
12
12
13
8
7
9
10
13
10
8
8
4
-2
0
-6
-6
-11
-8
-12
-12
-13
-18
-14
-14
-16
-17
-12
-14
-11
-8
-11
-12
-16
-16
-18
-16
-15
-14
-10
-13
-10
-6
-8
-7
-11
-14
-16
-10
-13
-9
-9
-7
-9
-7
-5
-9
-4
-3
-3
-4
-9
-15
-18
-20
-20
-23
-22
-21
-22
-18
-13
-17
-11
-8
-10
-12
-13
-12
-12
-9
-6
-6
-9
-13
-14
-13
-8
-8
-2
-4
-13
-24
-42
-70
-99
-130
-150
-157
-125
-81
-43
-16
0
15
23
25
24
21
24
21
23
18
19
21
19
16
14
12
15
15
17
15
13
13
11
12
10
8
7
11
8
7
4
2
3
6
5
8
6
5
5
1
-1
2
5
7
8
6
8
8
5
10
12
17
14
14
5
8
9
12
5
2
-4
-6
-9
-9
-13
-14
-14
-17
-15
-12
-12
-11
-11
-9
-11
-10
-8
-8
-9
-9
-11
-9
-6
-1
-1
1
2
-3
-4
2
-5
-5
-2
2
-1
-2
-2
-1
-1
-2
0
-4
-2
-3
-5
-9
-10
-11
-10
-11
-11
-16
-14
-13
-6
-10
-12
-7
-6
-5
-4
-3
-1
1
0
-2
-4
-3
2
8
12
9
11
12
1
-18
-36
-61
-87
-116
-138
-147
-112
-63
-20
4
20
29
36
35
33
31
29
28
31
31
27
24
29
31
27
27
24
22
15
20
18
20
17
15
11
12
8
5
8
8
5
-1
-1
1
-1
1
-4
-2
-1
1
-4
-2
-4
-2
-4
-2
0
2
3
4
1
3
2
-2
-9
-6
-7
-9
-14
-19
-19
-20
-22
-21
-23
-29
-25
-24
-23
-22
-22
-22
-22
-18
-18
-18
-15
-15
-16
-18
-17
-13
-17
-18
-20
-21
-17
-12
-12
-12
-14
-12
-11
-6
-8
-8
-13
-10
-12
-12
-11
-13
-11
-14
-13
-16
-18
-21
-23
-22
-22
-18
-16
-15
-12
-13
-11
-12
-17
-16
-17
-16
-10
-11
-9
-11
-11
-5
-2
5
3
-4
-16
-31
-56
-77
-108
-141
-160
-158
-117
-70
-30
-5
6
17
19
22
18
16
15
14
15
11
14
10
9
10
11
11
8
8
11
9
8
11
14
7
5
6
4
4
4
6
6
11
7
8
10
10
8
4
3
8
10
14
14
12
11
11
13
13
15
15
8
6
9
8
5
2
4
-1
2
0
-4
-4
-5
-6
-3
-2
-4
-3
1
-4
-9
-9
-5
-8
-8
-10
-9
-9
-9
-8
-12
-11
-8
-9
-7
-10
-12
-13
-11
-9
-12
-12
-12
-9
-9
-11
-10
-8
-10
-11
-17
-13
-18
-19
-18
-21
-25
-23
-24
-23
-22
-17
-17
-14
-10
-12
-9
-11
-7
-12
-13
-11
-10
-14
-10
-11
-4
3
6
1
-3
-17
-38
-59
-81
-115
-137
-145
-120
-74
-32
-5
8
10
13
18
18
19
17
16
13
13
12
12
7
8
11
9
12
10
6
-1
2
-1
-2
1
2
3
-4
-8
-7
-7
-7
-5
-2
-2
-3
-5
-8
-6
-2
-3
-2
-1
0
4
6
4
4
2
6
9
7
5
4
0
-1
2
6
0
-2
-4
-5
-5
-7
-1
-2
-5
-8
-6
-5
-7
-3
-4
0
-3
-6
-6
-3
-5
-3
3
5
10
9
9
11
14
13
15
17
20
20
22
17
16
16
15
13
13
16
11
9
10
9
4
4
-2
2
-4
2
3
5
7
11
11
13
8
3
4
4
3
7
6
7
6
8
7
13
19
14
6
-9
-28
-52
-85
-111
-130
-134
-102
-54
-19
8
21
27
30
26
20
20
19
21
16
18
18
9
7
7
5
8
9
9
12
7
9
9
10
11
14
13
17
11
5
1
-5
-9
-8
-9
-7
-10
-9
-4
-8
-7
-8
-4
-3
1
-1
4
4
5
-4
-4
-3
-5
-1
-5
-5
-10
-4
-13
-11
-14
-21
-18
-21
-21
-17
-19
-22
-21
-24
-26
-25
-25
-24
-20
-24
-24
-25
-21
-17
-19
-18
-21
-19
-22
-21
-20
-22
-16
-22
-23
-28
-29
-25
-21
-21
-20
-25
-24
-26
-30
-28
-32
-36
-39
-39
-36
-32
-31
-33
-34
-33
-32
-33
-31
-28
-28
-27
-32
-33
-31
-29
-28
-25
-23
-16
-12
-9
-16
-23
-39
-60
-88
-112
-143
-160
-138
-92
-52
-23
-5
4
7
14
9
13
13
17
21
22
12
6
4
-1
5
9
8
3
3
5
7
6
3
-1
1
0
-1
1
1
0
-1
-3
-3
1
-1
-2
0
-7
-4
0
2
4
1
-1
-1
-2
3
4
7
8
6
4
2
5
7
5
5
4
6
2
2
-1
-3
0
0
1
-4
-3
-4
-7
-10
-5
-2
-4
-3
-4
2
4
0
-2
-4
-5
-2
0
-2
-3
1
-2
-1
1
-1
4
-1
0
0
1
4
6
3
-3
2
-4
-11
-11
-12
-10
-9
-5
-4
-3
0
-3
4
-2
3
-2
3
1
4
2
1
5
1
7
11
16
14
6
-9
-27
-56
-80
-108
-139
-148
-124
-78
-30
-4
11
18
24
24
23
25
23
22
16
18
15
18
15
15
17
14
11
12
9
8
5
4
8
4
5
3
4
2
-5
-3
-4
-1
-4
-4
-11
-4
-6
-4
-8
0
4
6
-3
2
1
-2
2
2
3
1
4
-1
4
4
7
-2
-2
-5
-8
-4
-5
-10
-9
-8
-12
-8
-10
-12
-14
-12
-6
-13
-9
-9
-7
-7
-4
-4
2
-5
-4
1
-3
-2
-8
-5
-6
2
-2
6
4
-2
0
-2
2
1
1
-7
-4
-5
-6
-11
-15
-17
-12
-17
-15
-11
-6
-3
-5
-7
-4
-5
-4
-8
-4
-8
-6
-7
-3
-4
-2
-1
11
14
9
3
-17
-39
-66
-99
-127
-151
-144
-104
-59
-22
0
11
20
20
22
21
20
19
15
15
16
17
12
15
15
10
13
8
9
9
11
3
3
1
-1
0
-6
2
-2
-3
-4
-6
-3
-3
-4
-3
1
-2
-2
2
0
-3
0
2
8
6
7
6
4
4
2
6
7
6
1
-1
1
0
-5
-10
-12
-13
-10
-8
-8
-9
-10
-13
-12
-11
-10
-8
-10
-8
0
-6
-9
-10
-4
-6
-4
-8
-11
-9
-4
-2
-2
-3
-7
-4
-9
-12
-7
-8
-7
-6
-13
-12
-9
-10
-13
-15
-15
-20
-21
-23
-17
-13
-11
-13
-12
-4
-5
-8
-10
-10
-9
-10
-9
-7
-5
-4
-4
0
7
13
12
8
-5
-22
-48
-74
-103
-130
-147
-136
-97
-49
-13
10
19
24
27
32
31
29
26
18
22
19
20
21
18
23
20
14
14
13
12
12
7
4
4
6
7
4
7
3
2
5
2
7
-1
-3
-2
-4
-5
-9
-4
-3
3
-1
-2
-6
1
0
3
4
4
1
6
-3
0
-2
-3
-6
-4
-5
-8
-12
-10
-12
-15
-17
-17
-9
-11
-4
-11
-14
-15
-14
-10
-8
-7
-14
-11
-10
-9
-7
-5
-6
-9
-5
-9
-9
-6
-6
-7
-9
-6
-6
-6
-8
-7
-8
-9
-9
-9
-13
-13
-13
-21
-14
-16
-18
-19
-20
-17
-12
-9
-7
-6
-10
-13
-10
-11
-9
-8
-10
-12
-11
-9
-5
1
5
5
-1
-18
-37
-65
-90
-119
-142
-148
-131
-89
-46
-14
4
8
16
15
10
11
14
14
10
7
8
8
11
7
10
6
2
7
6
3
-1
2
-3
-1
5
6
3
0
-4
-3
-3
-4
-5
-4
-1
-1
4
2
0
-1
2
-1
4
6
12
9
7
8
10
12
12
13
12
9
8
7
6
8
6
-1
-1
-3
-7
-6
-7
-8
-4
-6
-5
-2
-4
-1
-5
-4
-4
-7
-5
-6
-5
-1
-1
1
-3
-5
2
-2
-5
-3
-3
-2
-3
-2
4
3
2
6
8
3
1
-1
-4
-4
-8
-5
-6
-12
-14
-10
-8
-6
2
4
7
5
3
-5
1
-3
-3
-1
-3
2
0
1
6
14
13
14
8
-8
-31
-61
-87
-117
-139
-143
-123
-72
-33
-4
12
16
24
23
24
18
21
22
17
18
15
16
17
12
14
5
7
9
6
8
5
2
3
1
-2
-1
1
-4
-4
-7
-9
-9
-3
-4
-10
-11
-9
-10
-9
-9
-3
-5
-4
0
-6
-6
-2
-1
-2
0
1
5
1
0
1
-3
-5
-4
-10
-10
-11
-13
-17
-17
-16
-22
-25
-20
-22
-22
-17
-21
-18
-17
-17
-16
-13
-12
-14
-13
-13
-14
-12
-8
-10
-11
-7
-7
-7
-5
-1
1
3
-3
-6
4
-2
4
3
4
1
2
5
-4
-6
-8
-5
0
-1
3
-2
-1
-2
4
4
6
11
9
8
10
16
18
17
10
6
3
9
10
21
18
16
-4
-26
-51
-80
-107
-127
-132
-97
-52
-12
13
20
21
20
22
23
23
17
15
11
11
14
9
12
12
10
12
7
7
5
4
1
-1
-6
-2
-1
2
0
0
-2
-3
-4
-5
-7
-8
-7
-2
-2
-1
-3
-2
2
2
-2
-3
3
5
5
6
4
10
11
8
11
8
4
3
0
1
-5
1
0
-2
-7
-5
-6
-6
-2
-9
-8
-13
-9
-10
-6
0
-2
-5
-6
-7
-7
-7
-6
1
6
4
-1
1
-4
-5
-4
-2
-3
-5
-4
-6
-6
-4
-7
-3
-6
-5
-5
-5
-9
-13
-17
-15
-18
-25
-23
-21
-20
-19
-18
-18
-16
-14
-15
-14
-15
-15
-14
-14
-13
-15
-14
-15
-15
-12
-3
4
5
-9
-28
-48
-69
-89
-120
-145
-150
-130
-79
-39
-12
0
7
9
12
10
12
10
7
6
2
3
4
7
3
5
3
3
-1
-2
-4
-3
-2
-4
-6
-6
-5
-8
-7
-12
-11
-10
-9
-13
-12
-13
-10
-14
-10
-9
-10
-8
-10
-10
-10
-7
-8
1
1
0
-5
-7
-6
-3
-2
-9
-6
-9
-11
-13
-12
-10
-11
-14
-19
-17
-13
-13
-13
-16
-11
-11
-12
-16
-17
-13
-13
-11
-9
-8
-12
-11
-9
-10
-12
-4
-7
-7
-11
-9
-12
-7
-5
-7
-5
-6
-7
-8
-3
-5
0
-2
-2
-4
-4
-4
-7
-7
-9
-6
-12
-20
-17
-15
-8
-8
-10
-9
-8
-3
-5
-6
-5
-7
-8
-10
-9
-7
-9
-9
1
2
9
2
-8
-22
-43
-65
-92
-117
-131
-137
-100
-57
-20
1
12
17
21
22
23
23
20
20
19
19
20
16
15
16
11
13
12
9
11
7
8
5
8
5
6
4
4
4
0
4
3
9
0
4
-2
-3
-2
-4
3
2
8
6
2
4
4
6
8
10
9
9
10
8
9
7
1
3
-4
-5
-7
-10
-9
-12
-12
-13
-17
-14
-19
-17
-17
-21
-19
-19
-19
-19
-13
-17
-20
-19
-21
-16
-21
-19
-20
-17
-19
-16
-17
-14
-17
-17
-17
-13
-16
-11
-10
-12
-11
-9
-7
-8
-7
-11
-14
-13
-15
-17
-18
-18
-17
-17
-19
-19
-17
-14
-15
-17
-11
-8
-6
-8
-9
-9
-13
-13
-16
-13
-11
-8
-7
-2
1
7
6
-5
-22
-43
-64
-86
-113
-138
-140
-109
-61
-20
3
16
20
25
24
22
24
24
21
23
20
20
20
20
14
17
17
16
18
17
14
14
10
10
13
11
8
11
11
8
3
6
9
11
5
3
7
7
4
6
8
8
9
8
7
8
12
11
16
17
17
18
14
10
8
7
5
5
4
5
1
2
-1
-4
-4
-13
-9
-14
-13
-10
-9
-8
-4
-7
-5
-6
-2
-7
-6
-7
-10
-5
-4
0
-2
0
-4
-3
-1
-3
3
-4
0
-2
-4
-1
-3
-1
0
-2
4
8
8
1
-1
-4
-2
-10
-11
-9
-17
-14
-19
-12
-11
-8
-1
-6
-5
-5
-9
-5
-9
-6
-2
-1
-4
-4
-2
-9
-5
-3
5
5
-3
-18
-34
-59
-88
-116
-142
-148
-129
-78
-33
-6
12
23
26
26
24
25
24
22
20
17
15
17
13
8
12
11
14
10
11
9
4
4
4
1
3
-1
1
3
-2
0
0
-6
-4
-5
1
1
-2
-3
-6
-4
-3
2
-1
6
5
5
4
8
7
5
5
5
6
9
4
3
2
-3
-4
-4
-4
-10
-6
-6
-4
-7
-4
-5
-8
-5
-11
-6
-9
-7
-6
-4
-5
-7
-9
-6
-4
-7
-7
-8
-4
-8
-5
-7
0
-1
-3
-3
0
-5
-8
-7
-2
-3
-3
-1
-3
-2
-3
-3
-2
-2
-5
-7
-9
-8
-14
-12
-17
-8
-5
-5
1
-5
0
0
-6
-6
-6
-6
-4
2
-4
-2
-7
-2
-1
7
7
6
-12
-27
-51
-68
-93
-116
-142
-141
-107
-51
-19
4
13
18
15
21
19
23
25
23
20
17
13
15
12
14
15
12
11
7
10
7
3
8
3
8
4
5
-1
1
-3
4
-3
-6
-2
-5
0
5
4
-1
1
1
-3
1
4
3
2
2
-2
2
2
6
2
4
-2
-6
-8
-11
-6
-10
-14
-13
-10
-11
-13
-10
-11
-13
-13
-16
-10
-17
-13
-13
-8
-16
-13
-13
-11
-13
-14
-11
-8
-7
-5
-5
-8
-8
-11
-6
-8
-5
-8
-5
-8
-9
-9
-5
-5
-5
-4
-2
-5
0
-5
-6
-13
-12
-16
-14
-15
-17
-17
-15
-16
-16
-11
-6
-5
-9
-9
-10
-7
-12
-6
-12
-12
-11
-6
-7
-4
-5
4
-2
-7
-29
-49
-70
-97
-122
-144
-147
-117
-65
-25
2
13
20
20
15
19
17
15
16
16
18
19
20
18
16
14
13
17
13
11
14
11
5
13
10
7
7
8
9
12
16
10
11
10
3
7
12
11
10
7
9
6
10
7
13
9
15
16
13
16
9
11
10
9
8
3
3
3
4
-3
-4
-6
-10
-9
-11
-9
-9
-2
-3
-9
-10
-11
-4
-8
-10
-9
-5
-7
-6
-9
-11
-5
-6
-9
-7
-4
-9
-7
-6
-7
-9
-9
-8
-10
-9
-4
-10
-6
-4
-8
-6
-6
-9
-3
-11
-6
-12
-13
-19
-15
-17
-18
-14
-17
-14
-14
-11
-14
-8
-12
-10
-8
-9
-7
-11
-12
-14
-12
-11
-9
1
-2
-14
-22
-37
-66
-92
-118
-144
-152
-134
-87
-42
-13
3
12
14
18
15
17
16
13
15
12
15
12
10
10
7
8
12
8
5
5
2
5
6
5
4
-1
-1
2
-3
-4
-5
-5
-6
-5
-4
-5
0
-1
-5
2
1
-2
0
-3
0
4
3
6
2
5
6
1
0
2
0
-7
-7
-8
-10
-11
-9
-9
-12
-10
-11
-15
-11
-15
-13
-13
-6
-6
-8
-7
-11
-6
-7
-5
-5
-6
-9
-5
-9
-6
-2
-7
-6
-9
-6
-5
-4
-2
0
-5
-4
-4
-9
-5
-8
0
-2
-2
-4
-6
-9
-12
-11
-17
-14
-17
-15
-10
-6
-9
-4
-3
-4
-6
-5
-7
-5
-5
-6
-7
-9
-8
-3
4
8
9
-5
-21
-42
-63
-90
-114
-138
-146
-117
-67
-28
1
13
14
15
18
19
18
19
21
18
16
14
10
13
14
15
7
10
7
3
6
4
4
-1
4
4
6
-5
-4
-6
-6
-2
-1
-2
-1
-3
-4
0
-3
1
1
6
5
-5
-3
-4
-4
2
1
6
3
0
-4
-2
-2
2
4
0
-11
-12
-17
-17
-16
-15
-17
-10
-10
-9
-9
-6
-6
-5
-4
-4
-9
-6
-8
-6
-4
-5
-2
-4
-4
-3
-3
-6
-5
-7
-5
-5
-4
-4
-2
-3
-3
-2
-4
-4
-7
-9
-4
-5
-10
-13
-9
-16
-16
-18
-14
-14
-13
-7
-5
-3
1
-2
-1
1
-1
2
2
-2
-3
6
3
7
4
7
9
3
-7
-25
-45
-65
-93
-113
-129
-118
-72
-35
-8
11
22
18
16
14
13
10
16
14
12
16
9
16
10
11
9
7
8
8
6
3
2
1
0
-3
-1
2
-6
-6
-6
-9
-5
-6
-9
-6
-9
-5
-9
-9
-5
-5
-6
-2
-3
0
4
-2
2
2
7
0
3
1
-1
4
-4
-3
-7
-8
-8
-11
-10
-14
-14
-12
-12
-12
-10
-14
-11
-8
-12
-9
-10
-8
-11
-7
-8
-13
-10
-11
-5
-9
-8
-9
-9
-8
-9
-6
-10
-10
-9
-9
-10
-9
-12
-11
-14
-17
-16
-20
-21
-24
-22
-26
-24
-21
-21
-21
-16
-12
-13
-14
-14
-13
-13
-11
-17
-17
-16
-17
-18
-12
-12
-6
-2
-4
-10
-24
-43
-65
-89
-118
-144
-155
-132
-89
-45
-14
3
11
17
18
18
20
16
19
14
19
15
15
16
14
12
11
11
10
6
7
3
7
4
1
2
-2
-2
-1
-7
-7
-5
-9
-5
-8
-5
-8
-5
-5
-7
-4
-8
-7
-3
-5
0
2
2
-1
0
3
3
-1
-1
-5
0
-4
-7
-10
-12
-12
-15
-14
-13
-14
-14
-12
-13
-16
-13
-14
-10
-15
-11
-11
-6
-8
-9
-13
-9
-10
-9
-7
-6
-5
-5
-6
-4
0
-3
-5
-2
2
3
3
3
1
-1
-2
-6
-9
-11
-13
-12
-9
-7
-5
0
1
3
2
8
8
3
3
1
8
6
8
6
6
5
7
16
19
10
0
-19
-45
-72
-98
-126
-142
-142
-96
-45
-8
18
30
31
35
27
28
21
20
17
13
15
12
15
13
10
12
9
7
5
4
6
3
3
1
-2
-5
-5
-6
-7
-4
-7
-4
-6
-8
-4
-9
-7
-6
-7
-4
-7
0
-3
-4
-1
-3
2
0
0
4
-2
5
5
5
2
-2
-3
-7
-4
-6
-11
-8
-9
-10
-12
-9
-9
-11
-9
-10
-9
-6
-6
-2
0
-3
-5
-2
-3
-4
-5
-9
-4
-4
-5
-5
-3
-5
-8
-9
-4
-9
-5
-4
-5
-4
-3
-4
-8
-11
-10
-13
-12
-9
-4
-2
-3
-4
-2
2
-1
5
3
3
3
1
4
-1
-2
-3
-5
2
9
15
14
14
5
-14
-37
-66
-97
-126
-153
-156
-125
-67
-19
17
36
37
41
39
35
31
25
26
22
21
19
18
17
18
20
14
11
6
11
9
6
10
6
6
6
6
4
3
4
4
-4
-5
-6
-4
-3
-2
-6
-4
-7
-5
-4
1
-2
2
-1
4
5
1
6
4
5
3
6
6
4
6
0
-5
-5
-10
-7
-8
-11
-11
-8
-6
-7
-8
-4
-8
-4
-6
-9
-4
-6
-3
-4
-5
-5
-7
-4
-9
-6
-3
-6
-7
-6
-6
-4
-7
-5
-5
-5
0
-5
-1
-3
0
-5
2
0
-1
-2
-1
-3
-2
-2
-4
-4
-9
-6
-11
-12
-14
-10
-9
-7
-5
-4
0
1
-1
-1
4
-2
1
0
-2
4
-2
4
2
9
12
14
11
-4
-18
-44
-73
-98
-130
-148
-139
-99
-51
-13
14
27
35
36
33
32
27
30
26
28
25
28
22
22
24
20
20
18
15
20
15
11
14
12
12
10
8
7
9
5
8
5
7
4
2
4
-2
3
2
3
4
-1
1
1
-2
-1
-1
2
0
1
1
0
-1
4
3
2
-2
-4
-5
-5
-7
-11
-11
-13
-14
-13
-12
-15
-15
-13
-16
-19
-16
-15
-17
-15
-15
-19
-18
-17
-16
-16
-15
-17
-15
-19
-16
-19
-16
-14
-13
-13
-17
-14
-12
-16
-15
-12
-13
-11
-11
-10
-8
-8
-12
-10
-13
-8
-12
-14
-15
-16
-18
-21
-21
-19
-23
-22
-21
-21
-16
-19
-21
-14
-14
-12
-12
-11
-11
-10
-14
-12
-11
-13
-13
-7
1
3
5
5
-7
-23
-40
-73
-102
-131
-148
-152
-119
-67
-29
2
22
27
32
28
29
32
31
25
25
26
21
19
22
19
15
15
13
16
12
10
10
12
4
5
6
6
1
-1
-4
-7
-2
-2
-2
-2
-4
-4
-6
-7
-5
-8
-4
-6
1
-4
-1
1
4
4
3
0
0
-1
-1
-4
-5
-6
-4
-7
-6
-10
-8
-17
-10
-13
-9
-9
-9
-9
-8
-13
-12
-11
-10
-12
-9
-7
-9
-12
-12
-13
-17
-12
-10
-13
-8
-9
-12
-7
-8
-4
-9
-7
-9
-6
-6
-3
-7
-5
-6
-8
-9
-10
-8
-7
-4
-7
0
0
-1
2
-2
-5
-1
-6
-7
-2
-7
-5
-5
-6
-4
-2
1
-2
-1
2
3
8
2
3
-1
6
0
-4
-3
-2
4
7
16
17
16
9
-8
-27
-58
-82
-121
-146
-165
-149
-105
-58
-24
-5
12
15
21
20
17
18
17
19
18
16
15
11
14
11
11
11
14
11
7
3
3
4
0
4
4
-2
1
0
-3
-6
-9
-4
-3
-5
-6
-5
-6
-7
-7
-11
-10
-10
-12
-8
-8
-5
-9
-4
-5
-7
-6
1
-3
-1
-4
-4
-9
-5
-3
-9
-6
-9
-5
-7
-6
-6
-5
-6
-8
-4
-7
-2
-5
-6
-3
-4
-7
-4
-2
-2
-5
-1
-4
-2
-7
-13
-8
-7
-2
-3
-5
-1
4
8
6
4
-2
-4
-4
-4
-7
-4
-2
-2
1
3
6
4
-1
-2
-2
-1
-5
-4
1
-2
-4
-5
-7
-8
-14
-14
-13
-16
-12
-17
-18
-13
-10
-7
-6
-7
-8
-8
-8
-9
-9
-12
-15
-8
-9
-4
4
8
8
-2
-14
-37
-65
-91
-119
-144
-152
-132
-87
-42
-16
6
14
16
24
17
20
17
18
14
14
10
12
8
9
9
6
5
6
4
2
5
1
0
-3
-2
-4
-4
-7
-7
-7
-10
-9
-9
-6
-9
-8
-12
-7
-9
-7
-6
-6
-5
-6
-1
-7
-3
-7
-7
-5
-6
-5
-4
-7
-3
-4
-9
-4
-5
-7
-7
-6
-1
-7
-6
-5
0
-1
-2
-6
-2
1
-4
-5
-4
-3
-2
-7
-5
4
-2
2
4
1
0
1
4
4
8
7
9
6
6
0
-2
-3
-2
0
0
2
5
6
4
5
4
-3
-4
0
-4
-3
-1
-3
3
-1
-3
-3
-5
-2
-3
-4
-5
-7
-7
-5
-5
-9
-4
-7
-6
-8
-16
-20
-22
-26
-24
-19
-16
-13
-11
-9
-10
-13
-13
-12
-15
-12
-13
-14
-11
-12
-9
0
4
2
-2
-10
-29
-53
-80
-108
-137
-161
-160
-127
-78
-42
-14
-1
11
20
20
19
19
20
20
15
16
15
12
14
12
9
12
9
9
8
6
7
4
3
3
5
-2
-1
-1
-2
-3
-6
-4
-6
-6
-8
-6
-8
-7
-6
-6
-6
-3
-2
-1
-2
-4
-4
-6
-3
-5
-1
-5
-2
-2
-4
-3
-3
-2
-5
-5
-9
-9
-13
-8
-10
-6
-11
-11
-6
-8
-4
-9
-8
-4
-4
-6
-8
-5
-2
-6
-6
-3
-4
-3
-4
-8
-5
-6
-8
-6
-7
-4
-2
-2
-5
0
-5
2
2
-1
4
1
6
3
0
4
-5
0
-7
-8
-8
-8
-12
-8
-6
-6
-2
4
3
7
5
7
5
2
6
4
-2
2
-4
-6
-8
-10
-8
-14
-16
-15
-16
-13
-11
-8
-6
-6
-2
0
-6
-3
-7
-4
-5
-6
-5
-3
4
5
6
7
-3
-14
-30
-52
-81
-108
-137
-151
-142
-103
-54
-22
2
15
19
24
14
8
5
6
11
8
8
8
13
17
19
17
18
18
14
15
12
14
13
12
7
5
6
-1
3
4
-4
-9
-6
-3
-2
-1
0
-2
-5
1
0
-5
-10
-12
-7
-3
2
1
1
1
2
1
4
2
5
4
1
2
1
0
0
-2
-6
-4
-6
-4
-2
-6
-8
-12
-12
-8
-4
-2
-1
2
2
1
-2
-1
-3
2
0
-1
-5
-6
-6
-9
-5
-6
-4
-4
-3
-5
-6
-4
-2
-2
-3
-1
0
-5
-7
-8
-5
-7
-6
-5
-7
-7
-6
-5
-5
-2
-4
0
-1
3
3
-1
-4
-4
-10
-7
-7
-9
-13
-10
-16
-17
-15
-15
-10
-7
-7
-7
-4
-6
-6
-10
-7
-6
-6
-8
-6
-5
1
-2
6
9
1
-4
-16
-32
-61
-87
-117
-148
-155
-135
-90
-50
-21
-1
12
19
18
17
19
19
19
18
10
12
11
7
7
8
8
7
8
4
4
1
3
4
3
-7
-4
-3
-6
-6
-6
0
-5
-10
-11
-10
-13
-12
-9
-13
-11
-8
-8
-8
-10
-10
-6
-5
-9
-8
-8
-2
-2
-3
-5
-2
-4
-6
-5
-6
-7
-9
-10
-10
-10
-14
-17
-11
-11
-10
-17
-13
-9
-11
-9
-9
-8
-7
-10
-6
-8
-9
-9
-10
-11
-7
-6
-7
-9
-7
-4
-1
-1
1
-4
-4
-7
-8
-5
-6
-4
-4
-1
0
-2
-3
-1
2
-1
-2
-2
-3
0
-1
0
3
2
4
1
4
4
3
4
0
-7
-4
-7
-9
-14
-15
-15
-13
-10
-7
-5
-4
-5
-8
-8
-6
-6
-5
-4
-5
-8
-9
-8
-6
-2
4
6
-1
-7
-23
-45
-73
-99
-132
-153
-155
-117
-70
-35
-11
4
13
17
22
17
19
20
21
21
17
12
11
11
15
16
14
13
6
6
9
9
10
5
3
5
6
3
3
2
4
-5
-1
-3
2
-2
4
-5
-8
-6
-3
-2
2
1
-5
-8
-4
1
3
6
6
1
-2
-3
-2
-2
3
4
1
1
2
-2
-1
-5
-5
-4
0
-9
-10
-12
-9
-4
-4
-5
-6
-7
-8
-9
-8
-9
-1
-1
1
-3
-2
4
-2
-2
-4
-4
-5
-5
-3
-3
-3
0
2
4
6
2
-5
-6
-10
-5
-5
-3
-5
-7
-4
-4
-3
-5
-2
-5
-2
3
2
-1
-8
-9
-8
-7
-12
-14
-14
-17
-21
-21
-21
-25
-21
-17
-12
-9
-8
-12
-14
-9
-7
-9
-8
-10
-10
-9
-8
-4
-1
4
5
3
-4
-22
-52
-78
-109
-135
-156
-154
-121
-77
-37
-10
3
18
26
25
26
24
24
24
19
19
16
19
18
14
12
12
8
5
4
7
7
5
5
11
8
1
-3
-3
-5
-4
5
-1
-6
-6
-10
-4
-8
-9
-7
-7
-6
-2
-3
0
0
-2
-3
-2
3
2
1
2
1
5
7
-3
1
2
1
1
-7
-7
-8
-6
-8
-5
-8
-9
-8
-6
-9
-6
-4
-3
-3
-7
-4
-4
-5
-4
0
-2
0
0
-3
-1
-5
-4
-2
-2
-1
-1
-3
-2
-4
-3
2
-5
-2
-5
-6
-2
-4
-2
-4
-4
-5
-4
-2
-5
-4
1
-4
-2
-5
-3
1
-4
-4
-5
-6
-11
-13
-16
-19
-21
-17
-13
-14
-13
-10
-9
-9
-9
-9
-7
-6
-7
-6
-9
-11
-7
-7
-4
1
7
7
6
-3
-11
-32
-55
-86
-118
-140
-152
-125
-82
-41
-14
5
12
19
19
15
18
18
21
15
15
16
13
11
15
12
12
10
10
10
10
8
5
4
8
13
4
1
0
-4
2
-3
0
-1
1
-4
-4
-5
-1
1
-2
-2
3
7
6
0
-5
-5
-4
-5
-9
-4
-2
-3
-3
-2
-2
-3
-5
-6
-6
-2
-3
-6
-10
-16
-14
-13
-14
-17
-16
-15
-13
-9
-4
-3
-2
-9
-7
-4
-4
-8
-4
-4
-5
-6
-8
-7
-9
-5
1
7
6
-2
-10
-10
-8
-10
-6
-5
-4
-2
-2
-3
-5
-9
-5
-4
-2
1
3
-2
-5
-3
-5
-5
0
-7
-7
-13
-13
-16
-12
-18
-20
-17
-18
-13
-14
-18
-11
-11
-13
-11
-11
-12
-10
-10
-10
-8
-14
-10
-6
-2
3
6
-1
-8
-25
-48
-69
-99
-123
-149
-142
-96
-58
-27
-8
7
9
12
9
12
11
11
9
7
9
8
7
7
7
6
6
4
0
-1
-3
2
3
-2
-4
-6
-5
-6
-3
-7
-6
-5
-6
-10
-7
-11
-7
-9
-10
-8
-8
-8
-6
-8
-3
-3
-2
-2
0
2
-3
-2
0
-2
-4
-5
0
-3
-3
-2
-9
-3
-8
-5
-8
-6
-8
-6
-4
-4
-3
-7
-4
-8
-4
-6
-2
-1
-5
-4
-2
0
-1
0
-1
0
-1
3
0
3
4
-2
2
0
1
1
3
0
-2
0
-2
1
-1
3
-3
1
2
0
8
6
6
4
5
-1
2
0
0
-9
-8
-13
-12
-12
-16
-11
-12
-14
-10
-4
-2
-4
-6
-4
-5
-6
-7
-5
-4
-5
-3
1
2
1
1
1
-9
-23
-37
-57
-85
-113
-136
-141
-116
-82
-40
-12
5
11
18
15
23
24
22
17
15
13
15
17
16
18
14
10
10
6
10
12
7
7
8
5
4
3
5
3
5
6
5
5
3
-3
-7
-9
-8
-5
-3
-4
-4
-3
1
5
3
1
2
3
6
3
2
2
3
2
5
3
4
1
0
1
2
-5
-8
-8
-8
-9
-9
-8
-10
-10
-7
-8
-3
-4
-5
-6
-9
-7
-8
-7
-7
-9
-5
-5
-4
-7
0
-5
-3
-5
-7
-6
-9
-8
-2
-1
4
-1
-3
-9
-9
-8
-5
-3
-4
5
3
3
2
-2
-7
-4
-5
-1
-3
-6
-10
-11
-14
-15
-16
-18
-19
-15
-13
-11
-11
-9
-4
-5
-2
-7
-4
-6
-8
-9
-10
-7
0
1
8
-1
-2
-12
-24
-47
-65
-87
-121
-146
-155
-128
-85
-43
-12
5
13
16
20
22
20
22
17
18
16
15
15
11
12
8
11
9
8
7
6
7
7
3
3
4
-1
-1
-2
-4
2
-4
0
-3
-5
-4
-7
-8
-7
-6
-5
-8
-9
-9
-2
-2
2
1
-3
3
2
-1
3
0
-2
-3
-3
-4
-7
-7
-9
-7
-6
-12
-9
-13
-11
-12
-9
-11
-10
-12
-11
-8
-5
-8
-8
-4
-7
-3
-5
-2
-2
-3
-5
-3
-2
-3
-3
-3
-4
-4
0
-4
-5
-2
0
0
-4
-5
-4
1
-3
2
-4
0
0
-2
-1
2
-1
1
1
1
-5
-7
-8
-12
-16
-16
-12
-19
-13
-12
-15
-10
-7
-7
-10
-5
-10
-6
-10
-8
-12
-11
-12
-7
-5
3
3
-2
-15
-29
-48
-74
-97
-123
-146
-146
-109
-62
-27
-2
12
12
15
18
20
20
18
14
16
15
15
15
12
14
10
8
8
11
6
8
6
4
8
1
7
6
2
3
4
-2
-1
0
-1
4
-7
-2
-6
-5
-7
-4
-4
-5
-8
-4
-5
-5
-3
-7
-5
-4
-3
-6
-4
-4
-6
-8
-12
-9
-10
-10
-12
-13
-13
-8
-11
-5
-8
-9
-5
-3
-7
-6
-5
-4
-5
-4
0
-2
0
-5
-5
-5
-4
-7
-4
-10
-6
-4
-10
-13
-13
-10
-4
0
4
3
7
4
3
5
2
-1
0
-5
3
-1
-3
-5
-4
-2
-4
-9
-10
-11
-18
-15
-12
-12
-8
-6
-6
-2
-2
3
1
5
3
3
3
-3
-9
-8
-7
-6
0
-2
2
-1
-9
-30
-52
-75
-101
-126
-144
-131
-97
-50
-14
4
15
18
15
15
15
15
15
18
15
9
7
10
7
7
4
3
1
4
1
5
0
-2
0
0
-2
-1
-1
-1
0
-6
-5
-6
-6
-5
-7
-5
-7
-5
-4
-5
-6
-9
-8
-4
0
-3
-7
-11
-11
-5
1
5
4
-1
1
4
-1
2
-5
-7
-9
-9
-13
-14
-21
-20
-12
-10
-9
-9
-9
-3
8
4
4
0
5
-1
-3
-5
-4
-6
-2
1
-1
-2
2
4
6
4
5
6
6
3
6
7
4
6
5
6
5
6
7
5
2
3
-1
2
-4
-4
-4
-7
-12
-10
-11
-8
-6
0
2
-3
-3
-5
-3
-4
-5
-6
-6
-5
-9
-6
-3
3
6
4
1
-9
-22
-48
-67
-89
-114
-134
-130
-94
-49
-13
6
19
21
24
24
18
19
17
16
20
20
18
19
15
13
11
8
6
7
6
0
5
-2
-4
0
-4
-6
-4
-9
-6
-2
-6
-7
-7
-9
-9
-10
-9
-8
-11
-9
-7
-5
-6
-7
-6
-5
-7
-7
-6
-7
-8
-4
-8
-5
-4
-10
-10
-12
-9
-15
-14
-18
-16
-16
-17
-15
-18
-17
-13
-13
-10
-12
-11
-13
-10
-7
-5
-11
-4
-9
-8
-6
-7
-4
-9
-4
-7
-4
-4
-5
-6
-3
-5
-2
-3
-1
-2
0
-2
1
-1
-4
-2
-3
-4
-6
-8
-9
-12
-17
-15
-15
-17
-10
-8
-6
-5
-4
-8
-5
-8
-11
-8
-12
-8
-12
-9
-12
-11
-8
-12
-9
-15
-22
-36
-57
-82
-100
-129
-155
-158
-126
-77
-38
-15
-1
1
9
10
8
8
3
3
6
8
6
5
8
8
4
4
-3
-5
-5
-2
0
-5
-4
-6
-5
-10
-10
-11
-10
-12
-14
-8
-13
-9
-12
-14
-10
-11
-11
-9
-10
-6
-3
-6
-4
-5
-7
-6
-5
-5
-6
-4
-4
-5
-5
-7
-9
-6
-12
-9
-10
-9
-10
-11
-10
-12
-17
-14
-11
-8
-4
-4
-7
-5
-8
-8
-9
-5
-8
-8
-6
-6
-7
-6
-4
-1
-1
-3
-1
-3
2
2
1
2
0
1
4
4
4
3
3
-3
-2
-4
-7
-9
-10
-11
-12
-12
-10
-11
-10
-6
-5
-3
-4
-2
-2
0
-3
-2
-2
-1
0
-4
-2
2
7
11
12
4
-8
-26
-51
-79
-106
-132
-146
-129
-85
-38
-8
12
21
23
27
30
30
27
23
22
25
25
23
23
21
21
21
17
20
16
16
14
15
13
16
12
11
14
12
11
10
8
9
8
10
8
6
6
4
3
5
6
5
4
6
9
8
7
5
8
8
5
7
5
1
0
-3
-4
-5
-3
-4
-7
-7
-7
-8
-6
-4
-3
-3
-6
-7
-4
-8
-4
-5
-1
-3
1
-1
-1
3
2
-1
-1
1
3
5
4
5
6
3
5
6
4
4
1
4
4
5
6
5
0
1
-2
-4
-3
-8
-7
-13
-13
-10
-10
-9
-1
-2
-2
-3
3
2
-1
0
2
5
1
2
4
3
3
6
6
11
11
2
-16
-34
-65
-92
-124
-145
-150
-116
-62
-19
8
24
27
28
30
24
21
18
21
19
16
15
16
15
16
14
10
10
7
8
8
6
7
3
3
1
-1
-4
-5
-6
-4
-8
-8
-8
-7
-8
-8
-13
-12
-10
-7
-7
-8
-9
-9
-8
-5
-9
-10
-8
-5
-5
-6
-8
-8
-12
-12
-11
-16
-12
-14
-13
-16
-16
-13
-15
-13
-13
-14
-12
-12
-10
-11
-5
-7
-5
-6
-4
-2
-2
-5
0
2
-2
-1
-1
-4
3
4
3
8
6
5
8
9
7
8
7
10
9
12
12
14
13
12
10
5
5
1
0
-5
0
-1
1
6
6
12
12
8
4
8
8
7
5
7
9
4
6
8
8
12
15
15
6
-6
-24
-51
-79
-106
-132
-147
-130
-78
-30
5
21
33
34
30
30
25
21
26
19
18
17
14
14
15
10
8
8
8
4
3
5
-3
0
-3
-6
-8
-6
-8
-13
-10
-13
-17
-14
-21
-16
-15
-17
-16
-16
-19
-16
-16
-19
-17
-22
-16
-17
-18
-12
-15
-12
-12
-12
-17
-13
-15
-18
-16
-22
-21
-21
-28
-25
-24
-26
-28
-28
-25
-24
-25
-21
-23
-22
-18
-21
-19
-17
-21
-17
-15
-18
-13
-13
-12
-12
-14
-10
-12
-8
-10
-6
-12
-5
-8
-8
-6
-8
-6
-2
-5
-7
-1
-5
-7
-6
-8
-12
-10
-12
-18
-18
-19
-25
-24
-18
-15
-10
-8
-9
-9
-7
-6
-9
-6
-6
-10
-11
-13
-12
-13
-11
-3
-4
-2
-4
-20
-30
-53
-80
-113
-145
-162
-155
-114
-64
-26
-1
15
21
26
20
25
21
20
18
15
17
12
18
12
11
12
10
8
5
3
3
1
0
0
-2
-6
-6
-8
-7
-7
-11
-9
-9
-9
-12
-13
-11
-12
-13
-11
-9
-10
-11
-10
-10
-9
-4
-4
-2
-3
-7
-2
-3
-4
-6
-3
-4
-7
-10
-10
-11
-15
-15
-12
-14
-16
-17
-14
-16
-17
-14
-13
-11
-13
-8
-10
-13
-11
-10
-11
-9
-7
-7
-7
-5
-8
-8
-4
-1
-2
-6
1
2
0
0
4
-1
4
6
2
5
5
7
3
3
5
1
1
-5
-4
-3
-4
-8
-13
-12
-12
-8
-5
-3
3
4
3
4
5
6
5
-2
-2
1
1
4
4
-2
3
6
10
12
6
-9
-23
-48
-76
-108
-136
-161
-155
-116
-65
-20
3
16
24
24
29
26
27
22
24
22
24
23
22
24
23
22
16
18
17
13
13
13
8
10
13
11
14
7
7
10
7
7
5
4
4
2
2
2
3
-1
3
1
4
2
6
8
7
11
10
11
9
7
7
11
10
4
5
1
0
-5
-5
-6
-5
-6
-4
-6
-8
-9
-6
-8
-8
-5
-5
-1
-2
-5
-3
-5
-4
-6
-6
-5
-4
-4
-3
-4
-3
-4
-2
1
-4
-3
-4
-5
-2
-3
-2
0
1
-4
-4
-5
-4
-4
-6
-5
-7
-2
-9
-6
-7
-8
-9
-14
-13
-16
-18
-21
-19
-19
-16
-17
-15
-17
-10
-12
-12
-13
-10
-9
-10
-12
-10
-11
-10
-10
-10
-7
-3
-3
-3
-15
-30
-55
-84
-115
-149
-172
-173
-134
-80
-33
-3
14
25
26
25
22
18
18
17
16
13
11
12
12
11
10
7
9
7
9
5
6
4
4
6
3
3
2
0
-3
-2
-2
-1
-3
-5
-3
-5
-5
-5
-5
-5
-4
-3
-5
1
3
2
-1
-1
4
3
1
-1
0
1
-2
-6
-5
-7
-9
-9
-12
-13
-16
-17
-16
-17
-15
-14
-14
-10
-11
-12
-11
-13
-11
-7
-10
-11
-12
-8
-9
-5
-7
-5
-6
-6
-8
-9
-4
-3
-2
-1
-1
-5
-4
-2
-2
-2
-3
-2
-5
-4
-3
-3
-4
-4
-4
-4
-4
-4
-6
-3
-4
-2
-4
-4
-4
-6
-11
-13
-13
-18
-19
-20
-17
-14
-14
-10
-8
-8
-6
-9
-8
-7
-4
-6
-5
-6
-8
-8
-4
-1
3
7
6
-9
-24
-48
-69
-101
-127
-151
-155
-121
-74
-33
-6
11
17
19
20
20
16
19
20
17
19
20
17
14
11
9
13
11
11
6
-1
-2
-4
-2
-3
-4
-2
-2
-2
2
-2
-3
2
0
1
0
-2
-7
-14
-14
-10
-8
-7
-4
0
-2
1
2
3
2
4
6
3
6
9
8
13
8
4
-6
-7
-4
-9
-9
-7
-7
-2
-8
-7
-5
-6
-5
-4
-6
-3
0
-1
-2
-1
6
4
3
-2
-2
1
-4
0
-3
-2
-5
-6
-3
0
-3
3
8
6
6
5
2
-5
-2
-4
-4
1
-1
1
2
-5
-3
-5
-2
0
2
1
-5
-2
-6
-8
-7
-10
-15
-14
-17
-18
-12
-14
-12
-9
-10
-10
-5
-7
-6
-8
-6
-8
-10
-6
-5
-11
-3
2
5
7
0
-6
-26
-51
-73
-106
-132
-154
-158
-122
-75
-33
-2
13
17
22
22
19
18
20
20
17
18
17
15
18
13
12
12
14
10
5
7
5
4
3
1
3
4
-2
-2
-4
-4
-3
1
0
-4
-6
-7
-6
-2
-4
-8
-9
-11
-9
-7
-6
-3
0
-3
5
4
2
1
1
5
4
8
6
0
-3
-5
-6
-8
-9
-9
-10
-9
-5
-9
-5
-4
-6
-9
-10
-7
-6
-7
-6
-4
-6
-4
-4
-2
-2
-4
-5
-1
-3
-5
-3
-5
-1
0
-2
0
0
-2
4
3
3
3
-1
1
1
2
0
0
2
0
-1
0
4
4
1
4
2
0
-2
-2
-5
-2
-2
-5
-8
-12
-15
-18
-16
-12
-11
-8
-6
0
-2
-6
-7
-4
-4
-6
-9
-7
-5
-8
-5
-2
1
6
7
-2
-15
-28
-51
-77
-106
-136
-157
-156
-123
-73
-33
-4
14
17
22
25
21
22
24
22
20
19
17
16
14
11
12
13
14
13
10
5
4
5
8
7
6
4
2
2
-1
-3
0
-2
-2
-1
-5
-3
-6
-7
-6
-7
-4
-5
-2
0
-2
3
2
-1
3
2
3
1
2
2
4
4
4
3
2
-2
-5
-6
-11
-9
-7
-11
-12
-6
-11
-11
-8
-10
-7
-7
-10
-9
-8
-4
-3
-4
-4
-7
-4
-4
-4
-5
-1
-4
-3
-4
0
1
0
0
1
1
0
-1
1
4
-1
-2
-2
-2
-5
-2
0
0
-1
2
1
0
-1
3
1
5
7
8
5
3
1
3
2
-2
-5
-7
-5
-6
-8
-8
-1
1
0
-1
3
3
7
2
3
3
2
6
4
2
4
6
11
11
12
7
0
-21
-45
-75
-105
-134
-157
-150
-117
-68
-30
-5
10
16
21
20
21
20
21
17
15
16
17
13
14
16
11
9
12
11
6
3
-1
4
0
-3
-6
-5
-6
-6
-9
-8
-11
-7
-11
-11
-10
-13
-11
-8
-12
-10
-8
-9
-10
-8
-7
-3
-4
-5
-5
-3
-2
2
1
2
4
1
-1
-2
-7
-10
-10
-6
-7
-10
-7
-12
-8
-6
-9
-6
-5
-4
-5
-5
-3
-1
3
3
2
3
-4
0
0
0
1
2
1
-5
-3
-5
-7
-3
-3
-5
-2
-5
-6
-5
-8
-4
-7
-10
-4
-5
-5
-4
-4
-5
-5
-2
-3
-2
-4
-2
-2
-5
-5
-9
-10
-14
-14
-18
-21
-19
-20
-22
-17
-15
-17
-12
-15
-16
-16
-15
-16
-16
-17
-18
-18
-19
-19
-13
-10
-5
-1
-1
-8
-22
-45
-64
-99
-126
-155
-161
-147
-96
-53
-22
-8
4
4
7
6
9
4
6
4
2
3
-1
-2
-6
-3
-7
-2
-8
-5
-6
-6
-8
-8
-10
-9
-9
-9
-9
-8
-9
-13
-12
-12
-8
-11
-13
-12
-10
-12
-12
-10
-10
-9
-6
-7
-5
-5
1
-1
-2
-2
-2
-3
2
1
1
1
-4
-6
-9
-9
-9
-8
-12
-10
-13
-12
-14
-14
-15
-17
-15
-14
-12
-11
-12
-11
-6
-10
-8
-6
-9
-11
-9
-10
-11
-11
-11
-10
-9
-6
-8
-9
-7
-7
-10
-9
-10
-9
-11
-11
-6
-7
-7
-8
-7
-9
-3
-6
0
-3
-5
0
-4
3
-5
-2
-5
-6
-2
-8
-9
-12
-10
-17
-18
-14
-16
-14
-10
-12
-10
-5
-6
-5
-7
-4
-9
-5
-6
-4
-8
-7
-3
-2
6
5
4
-3
-19
-39
-65
-90
-124
-145
-156
-132
-87
-41
-10
9
16
21
21
21
22
17
22
17
17
18
18
17
16
11
14
13
14
14
13
9
9
8
10
6
7
4
6
2
4
3
4
4
5
3
6
5
7
9
11
10
10
15
12
16
14
15
17
17
18
19
18
19
23
25
22
24
22
20
16
17
15
13
11
11
9
8
7
9
3
5
7
8
9
9
7
8
3
7
6
4
7
4
2
3
4
1
7
4
3
0
-5
1
-3
-4
-5
-5
-6
-7
-7
-8
-6
-12
-12
-12
-12
-11
-7
-5
-5
-4
-9
-7
-4
-10
-14
-13
-17
-16
-16
-20
-20
-21
-19
-20
-24
-17
-16
-13
-9
-8
-7
-8
-8
-14
-9
-8
-8
-9
-6
-6
-8
0
3
8
10
-2
-14
-32
-56
-81
-118
-148
-171
-159
-116
-70
-35
-14
4
11
16
16
13
16
15
14
12
15
13
10
8
7
-1
3
-3
-1
-4
-5
-5
-8
-7
-11
-10
-10
-13
-8
-12
-11
-12
-12
-10
-14
-10
-11
-9
-11
-9
-10
-9
-7
-6
-5
-5
2
-2
0
2
-1
0
-3
3
3
4
1
-1
-6
-9
-5
-10
-10
-8
-9
-11
-9
-12
-9
-12
-9
-12
-7
-11
-5
-5
-5
-5
-5
1
-4
-4
-2
-2
-7
-2
-4
-3
0
-5
-1
0
-3
0
1
-2
0
-2
1
0
-2
-4
2
2
4
3
1
-1
4
4
4
1
3
2
4
3
-2
0
-4
-5
-6
-7
-7
-4
-5
-4
-4
1
1
3
6
4
4
7
8
11
9
8
9
8
14
23
23
23
13
-4
-31
-60
-93
-125
-147
-145
-111
-60
-16
11
25
32
35
33
35
36
35
34
31
28
27
25
23
20
15
16
10
11
9
7
4
-1
-1
2
-4
-3
-5
-7
-9
-9
-9
-12
-14
-12
-13
-13
-16
-14
-12
-11
-13
-13
-11
-12
-10
-13
-9
-11
-10
-7
-7
-11
-6
-7
-7
-4
-9
-10
-11
-13
-12
-14
-13
-15
-14
-10
-14
-15
-14
-16
-14
-13
-9
-11
-7
-5
-8
-6
-4
-3
-8
-7
-7
-7
-7
-5
-6
-3
-5
-7
-6
-5
-6
-6
-3
-3
-5
-6
-3
-6
-4
-4
1
1
-2
-3
0
0
-2
1
-3
-2
-2
-5
-10
-12
-15
-15
-14
-17
-17
-13
-12
-8
-6
-11
-8
-9
-8
-9
-11
-11
-13
-15
-11
-13
-9
-5
10
12
3
-12
-29
-53
-81
-115
-145
-164
-157
-115
-68
-28
-4
7
13
16
18
14
11
7
13
9
7
5
6
4
5
4
2
3
2
0
-2
2
-1
-4
-4
-5
-7
-7
-10
-8
-9
-8
-9
-6
-9
-7
-7
-7
-10
-11
-8
-10
-12
-9
-7
-6
-7
-8
-4
-5
-4
-5
0
0
-2
-3
1
-4
-2
-6
-4
-8
-4
-1
2
-2
-3
-1
-5
-1
-1
-1
-2
0
2
-1
2
1
5
8
9
12
11
10
10
12
5
10
9
7
10
10
7
8
8
7
8
9
8
7
7
6
7
8
8
3
5
6
1
-3
-1
0
-6
-7
-12
-14
-15
-17
-15
-19
-18
-17
-14
-17
-13
-11
-12
-12
-11
-10
-8
-12
-14
-13
-11
-10
-10
-5
5
9
6
-3
-19
-42
-69
-102
-134
-160
-167
-140
-95
-51
-20
-2
11
17
21
25
20
23
21
20
16
14
14
15
7
10
11
6
11
8
5
7
12
9
3
2
5
6
2
0
-5
-1
-2
-5
-8
-7
-4
-9
-7
-10
-7
-6
-9
-9
-9
-7
-7
-6
-8
-1
2
-2
-3
-1
1
-2
-9
-6
-6
-8
-11
-11
-13
-15
-12
-16
-17
-13
-15
-12
-17
-13
-12
-9
-16
-12
-14
-11
-8
-11
-9
-12
-11
-12
-10
-12
-10
-10
-14
-9
-9
-9
-5
-7
-6
-5
-2
0
-2
2
-1
3
3
4
7
5
8
3
6
1
0
-2
-8
-9
-11
-12
-14
-13
-9
-8
-6
-5
0
2
0
1
-1
4
1
-2
-4
1
-3
0
3
10
10
12
10
-4
-17
-40
-71
-102
-130
-148
-152
-121
-73
-30
0
15
21
27
29
27
26
23
23
26
26
22
24
21
19
19
21
20
19
16
18
16
9
13
13
12
9
7
8
9
10
9
7
3
-1
2
5
1
4
2
3
-1
0
6
5
6
2
3
9
6
5
5
8
8
3
5
3
0
-4
0
-9
-8
-6
-9
-9
-10
-9
-9
-9
-12
-10
-13
-10
-11
-13
-11
-17
-16
-14
-15
-11
-11
-12
-13
-12
-11
-8
-10
-10
-9
-9
-12
-11
-8
-8
-7
-7
-5
-2
2
-5
-2
4
-2
-4
-8
-8
-6
-11
-15
-14
-11
-12
-17
-13
-12
-8
-7
-5
-3
-3
-8
-4
-4
-7
-4
-2
-2
-4
-6
2
5
8
10
17
13
3
-16
-42
-72
-104
-134
-155
-152
-112
-59
-23
2
16
24
30
30
31
31
32
32
30
28
26
30
29
25
23
24
22
23
15
18
14
15
12
10
9
10
8
9
7
5
4
5
7
4
2
-2
1
-1
-2
0
-3
-3
-4
-6
-1
-3
-4
-3
-4
-3
-3
-7
0
-7
-4
-4
-5
-4
-9
-7
-11
-13
-10
-13
-17
-15
-12
-13
-9
-14
-11
-9
-7
-9
-9
-9
-10
-13
-9
-10
-10
-11
-13
-11
-11
-13
-13
-12
-11
-11
-13
-11
-13
-8
-7
-13
-9
-12
-12
-11
-13
-12
-10
-15
-14
-18
-18
-21
-24
-25
-26
-23
-20
-19
-18
-17
-12
-12
-16
-13
-13
-12
-12
-15
-12
-15
-17
-12
-8
-4
2
2
-4
-16
-37
-60
-88
-118
-146
-169
-149
-110
-63
-24
-2
10
14
20
14
15
12
16
16
9
16
17
16
11
16
13
13
7
10
7
9
8
3
9
10
4
6
7
8
3
5
4
4
6
6
6
3
6
3
3
2
-1
2
3
-1
4
3
4
8
6
-1
3
4
3
4
-2
-1
-2
-5
-4
-5
-7
-11
-9
-12
-14
-13
-14
-13
-14
-14
-10
-10
-12
-9
-13
-10
-11
-12
-12
-11
-10
-12
-10
-9
-13
-10
-11
-9
-12
-13
-12
-12
-12
-13
-13
-10
-12
-9
-12
-8
-12
-10
-10
-15
-17
-15
-19
-20
-20
-20
-15
-15
-10
-13
-8
-9
-8
-12
-7
-9
-6
-7
-10
-6
-6
-6
-7
2
6
10
10
4
-8
-31
-52
-82
-114
-145
-157
-145
-100
-58
-22
-2
13
19
24
22
24
21
23
19
19
18
18
17
15
12
12
15
13
12
9
9
7
6
5
6
3
1
0
-2
-4
-1
-4
-5
-3
-5
-4
-3
-6
-5
-4
-6
-4
2
-3
-3
2
0
2
4
2
6
5
2
5
2
4
3
-5
0
-3
-5
-3
-8
-3
-11
-9
-4
-8
-8
-6
-9
-6
-8
-6
-9
-7
-4
-7
-7
-4
-4
-4
-7
-5
-2
-7
-5
-5
-5
-1
-5
-1
0
0
2
0
0
-1
-1
-4
-4
-7
-9
-10
-15
-14
-17
-16
-14
-9
-11
-5
-3
-2
-2
-2
-1
-1
-1
-1
4
0
-1
2
5
3
6
9
14
10
6
-9
-31
-56
-84
-113
-141
-153
-134
-93
-43
-8
15
22
29
31
31
30
31
32
32
32
34
33
32
26
28
25
24
22
23
22
17
19
17
14
16
14
8
9
9
10
7
5
6
4
3
-3
-1
-2
-1
-3
0
-4
-1
-1
5
4
4
6
4
5
6
5
7
4
-1
-1
-5
-5
-5
-8
-11
-9
-12
-13
-10
-11
-12
-14
-12
-14
-17
-14
-14
-15
-14
-15
-14
-15
-14
-12
-11
-10
-10
-10
-10
-10
-8
-8
-7
-8
-4
-8
-8
-3
-3
-3
-4
-4
-4
-6
-4
-10
-9
-13
-14
-13
-15
-11
-10
-4
-5
-6
-6
-5
0
-4
-6
-1
-3
-5
0
1
-2
2
7
11
12
11
-2
-20
-47
-73
-107
-140
-160
-159
-120
-68
-32
-5
9
15
20
20
22
19
18
16
16
15
14
12
10
8
7
9
8
6
5
6
3
3
2
3
-1
3
4
-1
0
-4
-3
-2
-4
-6
-4
-5
-7
-8
-5
-7
-5
-6
-3
-2
-2
0
1
1
1
0
0
-3
0
-3
-5
-4
-8
-7
-9
-10
-9
-11
-10
-14
-14
-17
-12
-14
-9
-10
-10
-12
-10
-10
-7
-7
-9
-5
-4
-9
-4
-3
-5
-8
-6
-6
-5
-3
-3
-1
-5
-6
-4
-3
-1
-2
-2
-5
-5
-9
-7
-8
-14
-13
-14
-11
-7
-10
-7
-3
-3
-1
-6
-3
-6
-2
-5
0
-5
-4
-2
-3
-1
3
12
13
9
3
-14
-37
-61
-94
-121
-148
-151
-123
-72
-28
1
15
22
28
30
27
28
27
26
28
27
22
19
16
16
15
12
11
11
11
9
3
7
3
3
3
-2
3
-1
-4
-5
-5
-7
-4
-9
-7
-9
-12
-7
-8
-10
-13
-7
-8
-8
-6
-4
-7
-3
0
-2
-5
-4
-5
-9
-6
-13
-12
-10
-15
-17
-13
-17
-19
-13
-14
-13
-17
-18
-13
-15
-13
-10
-8
-8
-8
-2
-5
-9
-5
-5
-4
-5
0
-2
-3
-5
1
-3
-1
-1
2
0
1
3
-1
0
4
-2
-1
-5
-4
-9
-10
-12
-15
-15
-13
-15
-10
-8
-8
-7
-7
-3
-4
-5
-4
-7
-7
-4
-7
-4
-5
0
7
8
8
4
-10
-28
-53
-85
-112
-145
-162
-153
-113
-67
-35
-11
3
8
13
15
16
17
18
16
18
16
14
12
13
9
8
10
8
5
7
6
2
-2
-1
-2
-1
2
-4
-7
-4
-7
-7
-9
-10
-6
-10
-8
-9
-7
-10
-7
-3
-7
-5
-9
-3
-3
1
-3
1
2
1
6
1
-1
2
-3
-3
-7
-7
-6
-9
-11
-14
-10
-12
-12
-13
-11
-13
-9
-12
-11
-10
-10
-10
-6
-9
-9
-9
-7
-5
-5
-4
-4
-5
-3
-4
-2
1
-2
1
0
4
-1
-3
1
1
-3
-4
-6
-9
-8
-11
-10
-10
-9
-7
-5
-2
-3
1
3
1
-6
-5
0
2
1
-2
0
3
7
11
14
12
11
-2
-20
-45
-72
-101
-133
-157
-154
-120
-77
-37
-10
9
16
22
23
23
22
21
20
21
18
14
18
15
16
19
10
12
13
15
11
9
11
5
8
4
4
2
2
4
1
-3
3
-3
2
-1
-1
-2
-2
2
-4
-6
-5
2
2
4
1
0
4
1
5
5
7
7
4
7
8
2
0
-3
-4
-2
-4
-5
0
-4
-5
-5
-6
-4
-5
-5
-5
-5
-3
2
1
-2
-1
-1
-3
2
4
3
-2
3
2
4
6
-1
4
8
4
3
5
1
-1
-1
-9
-9
-9
-10
-13
-12
-16
-12
-10
-7
-5
-7
-5
-5
-4
-5
-7
-4
-5
-7
-11
-8
-6
-6
0
4
4
-6
-24
-41
-71
-99
-130
-161
-175
-152
-107
-60
-20
-4
10
20
20
21
21
24
22
20
20
18
19
19
16
13
13
12
11
7
8
7
6
8
4
8
2
1
2
1
-3
0
-2
0
-3
-3
-7
-5
-5
-4
-6
-5
-3
-4
-1
0
2
-2
1
4
-1
1
4
-1
3
-2
-3
-7
-9
-6
-10
-11
-12
-12
-9
-10
-12
-13
-12
-10
-8
-6
-11
-6
-7
-8
-9
-4
-6
-5
-9
-4
-5
-5
-3
-3
1
0
-2
1
-1
1
6
3
5
-2
2
1
-1
-4
-6
-9
-10
-11
-9
-8
-6
0
-2
3
0
-4
-1
3
2
5
3
0
0
4
3
5
11
18
17
14
-2
-16
-45
-66
-101
-133
-150
-153
-111
-66
-25
1
15
22
21
24
20
17
20
16
15
18
15
11
13
14
11
8
9
8
7
7
3
-1
-1
0
-3
-1
-2
-4
-4
-6
-7
-7
-9
-8
-13
-10
-12
-7
-9
-9
-9
-10
-9
-9
-7
-3
-6
-5
-4
-8
-2
-8
-6
-8
-9
-6
-8
-10
-11
-13
-14
-15
-12
-15
-16
-15
-17
-13
-11
-15
-16
-13
-10
-11
-7
-8
-7
-7
-12
-7
-8
-8
-6
-10
-6
-8
-4
-3
-5
-5
-6
-5
-1
-3
-5
-7
-10
-8
-10
-17
-19
-21
-20
-19
-20
-20
-14
-10
-13
-13
-13
-11
-8
-10
-10
-10
-8
-8
-9
-4
-3
7
9
10
4
-5
-27
-50
-72
-108
-138
-155
-144
-112
-64
-26
-3
10
15
19
22
24
18
19
16
18
17
12
15
12
12
12
12
14
9
8
7
6
4
5
6
3
1
-1
-2
-5
-4
-5
-6
-9
-9
-7
-5
-8
-6
-2
-5
-4
0
-3
-3
3
3
4
5
7
5
7
6
6
6
3
0
-1
-5
-2
-6
-10
-9
-8
-13
-7
-10
-8
-6
-11
-13
-15
-10
-7
-9
-9
-7
-8
-8
-5
-2
-2
-9
-6
-4
-3
-4
-7
-5
-2
2
0
-2
2
4
1
-2
-1
-5
-5
-9
-8
-8
-5
-1
-3
4
7
6
12
7
7
6
5
4
5
5
7
5
7
9
12
14
10
8
-6
-26
-48
-73
-103
-136
-150
-146
-109
-67
-28
-2
15
26
23
27
32
31
28
27
28
25
23
25
22
20
21
20
15
16
16
14
10
9
8
10
7
8
6
4
0
1
4
3
2
-2
2
0
-2
0
-4
0
-1
-1
1
-1
3
0
-2
-3
3
3
6
5
5
2
-1
-4
-7
-9
-11
-9
-12
-11
-13
-12
-10
-9
-11
-15
-11
-9
-9
-8
-9
-10
-12
-9
-8
-8
-7
-8
-8
-8
-7
-2
-5
-3
-3
-4
0
-7
3
-3
-4
1
-2
-10
-9
-10
-17
-16
-16
-18
-14
-12
-12
-6
-6
-6
-9
-5
-7
-6
-8
-3
-5
-6
-10
-6
-3
4
8
14
10
-5
-22
-45
-68
-96
-131
-157
-158
-120
-81
-40
-13
-1
6
14
15
16
15
18
13
18
18
18
15
15
16
11
10
11
10
6
2
3
5
0
-1
0
-4
-4
-1
-3
-3
-5
-7
-8
-5
-8
-9
-7
-8
-9
-9
-10
-6
-4
-4
-5
-3
3
1
-2
-4
-1
-3
-5
-4
-4
-6
-9
-11
-13
-15
-13
-17
-13
-19
-17
-14
-14
-15
-14
-12
-13
-8
-6
-6
-13
-6
-9
-5
-3
-5
-9
-4
-4
-3
-2
-2
-4
4
4
4
3
1
1
1
0
-2
-5
-7
-8
-11
-9
-12
-10
-4
-3
-3
4
-2
2
-2
-5
1
-6
-1
-4
-5
-6
-5
-4
-4
4
4
9
-2
-10
-28
-52
-82
-109
-141
-155
-143
-105
-57
-21
-1
12
18
20
21
17
17
11
13
11
12
9
10
11
7
7
9
5
8
3
3
1
0
0
-3
-1
-6
-4
-3
-6
-7
-4
-9
-8
-9
-9
-12
-9
-6
-6
-9
-6
-5
-5
-1
-4
-4
3
0
1
4
-5
-1
-4
2
-5
-5
-7
-7
-7
-12
-12
-12
-11
-19
-17
-21
-17
-16
-20
-15
-12
-14
-8
-13
-13
-17
-12
-11
-12
-10
-13
-8
-10
-7
-9
-10
-8
-9
-9
-9
-10
-5
-9
-5
-8
-8
-10
-11
-15
-16
-15
-13
-12
-11
-10
-7
-3
-2
-4
-2
-4
-4
-5
-1
-7
-5
-5
-4
-4
4
2
7
8
4
-17
-33
-57
-89
-116
-139
-156
-141
-102
-53
-14
17
25
28
30
32
26
20
20
17
19
19
15
19
17
14
13
15
16
12
8
8
10
10
4
6
7
6
1
1
3
-1
-3
-2
-4
-6
-6
-4
-6
-6
-5
-3
-2
-4
0
2
4
4
7
5
5
10
13
7
7
11
5
3
1
2
-4
-5
-8
-9
-4
-11
-13
-9
-10
-8
-6
-5
-5
-4
-2
-4
-5
-5
0
-3
-8
-4
-3
-3
-2
-4
-3
-4
-2
1
-3
-3
2
1
-1
-1
1
-3
-4
-4
-9
-8
-8
-7
-11
-9
-4
0
-3
6
2
1
0
-1
0
4
-4
-2
-3
-5
2
0
4
7
9
6
-4
-17
-32
-65
-88
-121
-147
-150
-122
-74
-34
-4
14
23
25
28
30
34
27
30
29
28
28
26
27
25
22
21
21
25
20
17
15
15
19
14
15
13
12
14
12
8
8
9
7
8
4
7
7
7
9
8
9
9
9
9
14
11
12
10
12
14
12
14
11
10
14
6
7
8
5
1
4
4
4
1
2
3
-1
-5
-2
-1
1
0
1
-3
1
2
-4
2
1
2
4
-1
2
3
1
2
0
3
2
4
8
1
1
4
-1
-6
-7
-11
-11
-10
-14
-15
-10
-10
-12
-9
-9
-7
-4
-4
-7
-6
-5
-11
-4
-7
-6
-8
-3
-2
3
7
8
5
-10
-29
-45
-83
-108
-145
-171
-169
-132
-89
-51
-25
-4
5
11
13
17
11
12
13
11
11
8
11
8
6
2
4
4
6
2
3
-5
-5
-6
-9
-6
-10
-9
-13
-12
-12
-16
-13
-13
-19
-19
-16
-16
-15
-17
-19
-16
-14
-12
-16
-15
-15
-14
-14
-10
-10
-7
-12
-11
-11
-11
-17
-14
-18
-22
-22
-25
-26
-26
-22
-24
-24
-23
-21
-22
-19
-21
-23
-18
-20
-18
-16
-12
-17
-13
-17
-13
-15
-12
-12
-15
-12
-11
-8
-6
-8
-10
-9
-7
-7
-10
-8
-14
-14
-18
-16
-18
-18
-19
-17
-14
-11
-9
-9
-8
-7
-4
-4
-8
-8
-9
-10
-9
-7
-2
-3
2
10
9
-3
-17
-31
-58
-89
-118
-145
-166
-152
-111
-58
-19
4
20
27
30
30
31
31
28
26
23
26
27
23
22
24
21
18
20
18
18
18
15
16
16
13
14
10
12
11
10
9
7
10
9
6
8
6
6
11
8
10
8
13
11
13
9
11
12
10
13
13
11
12
9
8
11
6
1
1
-6
-5
-6
-9
-10
-8
-10
-10
-10
-14
-11
-8
-7
-8
-8
-8
-9
-6
-10
-6
-5
-8
-7
-6
-7
-6
-6
-7
-4
-3
-3
-2
-4
-4
-4
-9
-11
-11
-13
-17
-14
-18
-19
-16
-15
-11
-10
-10
-6
-6
-5
-6
-5
-6
-5
-6
-13
-6
-6
-4
-4
-2
5
3
3
0
-15
-37
-65
-93
-124
-151
-156
-133
-84
-37
-5
8
19
22
24
24
22
21
26
24
21
21
18
18
17
16
16
17
18
14
14
14
11
11
9
11
9
10
4
2
2
4
1
3
2
0
-1
-1
-1
-5
-4
-5
-5
-4
2
-5
0
-2
0
2
-1
-4
-1
3
-5
-1
-5
-7
-8
-10
-11
-12
-14
-16
-14
-16
-20
-20
-21
-17
-19
-20
-15
-16
-20
-14
-16
-17
-16
-14
-20
-18
-15
-19
-17
-18
-19
-16
-16
-13
-18
-15
-13
-16
-16
-16
-18
-19
-19
-21
-18
-25
-23
-21
-26
-21
-18
-20
-13
-14
-13
-15
-12
-12
-12
-8
-13
-11
-15
-11
-12
-8
-9
-2
6
2
-6
-16
-40
-69
-91
-125
-146
-157
-138
-89
-40
-8
18
25
29
26
20
25
21
20
19
19
18
16
20
19
14
15
16
12
9
12
10
7
7
11
8
5
8
8
7
3
5
6
-2
4
2
2
2
-1
-5
4
1
4
5
8
9
12
11
12
9
10
14
14
15
9
10
5
5
5
2
-2
-1
-2
0
-3
-6
-3
-5
-1
-3
-2
0
-4
-3
3
-2
2
-1
3
-2
3
7
3
6
3
5
7
3
7
10
10
14
18
19
17
15
17
22
18
22
18
17
16
13
13
13
10
14
15
15
15
19
16
16
21
15
16
13
15
14
10
13
8
11
14
17
19
17
5
-8
-22
-42
-70
-99
-125
-139
-127
-90
-44
-10
7
17
22
23
24
23
22
19
20
18
16
19
16
15
14
10
11
14
10
9
12
7
5
3
2
-3
-4
0
-3
-9
-6
-5
-4
-9
-7
-7
-8
-9
-6
-5
-3
-9
-3
-4
-2
-7
-2
-2
2
-4
-2
-2
1
3
-2
-1
-6
-8
-6
-11
-12
-13
-14
-15
-17
-17
-22
-18
-16
-19
-17
-14
-15
-16
-14
-14
-17
-13
-12
-11
-7
-10
-12
-9
-12
-8
-8
-7
-6
-3
-8
-8
-4
-6
-2
-4
-5
-7
-5
-11
-11
-15
-12
-15
-18
-18
-20
-17
-15
-11
-14
-15
-10
-9
-5
-7
-10
-6
-10
-7
-6
-8
-5
-8
0
-1
2
-2
-8
-22
-40
-66
-92
-125
-148
-157
-134
-88
-49
-20
1
10
16
14
13
16
16
17
14
15
13
11
9
5
6
8
8
-1
1
-4
1
-3
-4
-9
-8
-5
-6
-9
-11
-11
-13
-13
-12
-18
-16
-22
-18
-17
-16
-17
-18
-15
-17
-16
-16
-17
-12
-14
-14
-12
-12
-9
-9
-11
-16
-18
-15
-17
-21
-24
-24
-23
-29
-26
-31
-31
-30
-30
-31
-31
-31
-31
-29
-29
-32
-31
-24
-22
-21
-16
-21
-17
-20
-16
-18
-18
-19
-14
-9
-10
-8
-6
-9
-6
0
-5
-6
-6
-3
-2
-8
-8
-7
-13
-13
-12
-14
-12
-12
-12
-10
-9
-13
-8
-12
-6
-13
-5
-5
-9
-7
-6
-1
-3
4
9
8
-1
-19
-41
-66
-97
-131
-155
-163
-127
-82
-37
-11
11
19
27
30
29
30
25
23
19
25
21
20
23
16
22
19
20
16
11
9
10
7
7
3
5
7
3
4
-1
5
0
5
3
3
5
9
5
4
-3
2
2
5
6
7
5
12
11
16
12
16
14
14
7
4
6
4
6
4
4
-3
-9
-4
-2
-5
-2
-5
-4
-5
-2
-3
-7
-2
2
2
3
5
-1
0
-1
5
1
6
6
11
9
7
4
7
3
-1
7
10
10
3
4
4
-1
1
-5
-7
-15
-13
-11
-9
-9
-4
-5
2
-5
-6
-5
-4
-2
-2
4
4
4
-2
-8
-9
-5
-5
-1
8
9
7
2
-22
-42
-76
-115
-144
-171
-167
-126
-68
-27
0
17
25
29
29
23
20
19
18
17
16
17
17
16
13
16
8
8
6
6
5
1
4
6
3
-1
-5
-6
-9
-4
-7
-6
-5
-9
-14
-11
-17
-8
-11
-8
-7
-9
-10
-6
-5
-4
-9
-9
-9
-4
1
-1
-2
4
1
-1
-11
-13
-11
-11
-9
-9
-4
-11
-15
-15
-16
-12
-15
-8
-12
-8
-4
-2
-7
-6
-9
-12
-11
-3
-4
1
1
-5
2
-2
-1
-2
-1
-1
-3
-2
2
2
7
3
5
3
5
-3
-3
-7
-4
-5
-9
-6
-9
-7
-6
-5
-4
1
0
6
0
8
5
0
-4
0
-4
3
2
3
3
11
15
13
-1
-10
-27
-59
-83
-116
-140
-151
-132
-92
-48
-22
3
18
20
23
21
20
21
21
23
20
22
15
17
17
19
19
11
9
7
3
5
3
3
8
5
6
1
3
2
-8
-7
-9
-7
-11
-11
-9
-7
-10
-13
-9
-8
-8
-4
-7
-4
-2
2
-5
-4
-6
-10
-5
-4
-5
-9
-8
-9
-10
-10
-12
-16
-17
-22
-19
-16
-20
-18
-17
-18
-20
-16
-17
-18
-14
-19
-13
-13
-8
-10
-11
-10
-12
-14
-16
-13
-8
-6
-8
-7
-7
-2
0
-2
-2
3
3
-3
-3
-6
-9
-9
-7
-6
-8
-12
-13
-8
-7
-5
1
-2
-6
-5
1
3
2
0
-5
1
-1
-3
-1
-1
1
8
15
11
0
-19
-37
-63
-93
-123
-147
-150
-120
-83
-49
-17
2
15
24
26
27
23
20
23
21
22
22
23
24
17
15
16
12
13
10
8
2
8
6
6
10
5
-2
-1
1
-2
-5
-4
-1
-1
-1
2
-5
-1
0
-3
1
0
0
5
1
3
7
7
5
4
8
7
5
8
7
4
-1
-2
-1
-6
-7
-8
-10
-10
-5
-8
-7
-8
-8
-4
-6
-9
-7
-9
-8
-6
-7
-6
1
-4
-2
-4
-1
0
3
2
0
0
-3
3
1
0
2
3
0
-2
-2
-6
-8
-5
-7
-15
-15
-8
-10
-7
-5
-7
-6
0
-3
2
-1
-3
0
-4
-3
-4
-4
-7
-3
-4
7
13
9
4
-13
-30
-52
-88
-122
-153
-166
-149
-103
-58
-26
-5
12
14
22
28
24
18
18
20
17
17
14
18
11
12
10
11
9
10
13
10
5
9
5
0
5
3
4
3
-1
-8
-7
-5
-2
-4
-4
-7
-6
-9
-7
-3
-5
-2
-5
-1
2
5
2
1
2
-3
4
7
6
5
-5
-5
-3
-12
-14
-14
-13
-12
-18
-14
-13
-13
-12
-12
-14
-15
-8
-10
-12
-9
-10
-11
-6
-8
-4
-4
-10
-6
-4
-4
-6
-8
-8
-2
1
1
2
0
0
-6
-6
0
-4
-8
-12
-16
-16
-15
-17
-10
-10
-6
-6
-5
-5
-3
-6
-6
-10
-8
-4
-4
-6
-2
0
-5
3
8
10
8
-1
-14
-33
-60
-91
-121
-153
-157
-138
-95
-51
-22
3
8
20
21
24
26
21
25
24
26
24
19
20
17
17
18
17
13
13
8
10
7
7
12
8
9
6
1
1
-2
0
-1
-4
-3
-1
-3
-3
-2
-5
-3
-2
-4
5
7
5
8
5
3
6
3
10
8
6
6
4
8
-3
-2
-9
-6
-8
-9
-4
-8
-8
-6
-7
-8
-12
-18
-18
-14
-7
-5
-3
-2
-7
-10
-9
-5
-5
-3
2
-3
-1
-1
-3
-2
-7
-2
1
-5
-4
0
-4
-5
-8
-5
-8
-11
-12
-11
-13
-12
-9
-6
0
-2
-5
-2
-2
-5
-4
-4
-4
-2
-4
-5
-7
1
4
10
8
5
-2
-20
-39
-68
-101
-133
-158
-164
-136
-83
-42
-13
6
15
23
23
25
22
26
19
21
15
13
15
14
12
10
9
8
3
8
7
2
5
2
1
1
-3
-6
-4
-8
-8
-4
-4
-6
-13
-11
-10
-9
-13
-11
-6
-4
-5
-4
-6
-3
-4
-2
-4
4
2
-1
1
3
-3
-1
-5
-8
-10
-12
-13
-14
-12
-19
-19
-21
-17
-12
-16
-16
-16
-17
-14
-14
-17
-13
-14
-11
-12
-10
-6
-10
-10
-12
-12
-7
-4
-8
-4
-5
-5
-4
-6
-9
-8
-9
-8
-10
-8
-13
-13
-18
-18
-18
-8
-12
-10
-10
-15
-5
-6
-3
-4
-5
-5
-3
-5
-8
-6
-7
-4
-4
5
12
6
-1
-12
-32
-58
-87
-122
-154
-167
-148
-108
-60
-26
-3
16
18
19
23
21
21
22
21
18
19
17
18
22
18
13
14
11
8
11
7
6
5
6
2
1
-3
1
-3
-4
2
2
-1
-3
-2
-4
-4
-5
0
-6
-3
-4
-4
-6
-3
-3
2
-2
2
-2
2
6
2
4
1
-3
-2
-3
-5
-6
-4
-7
-11
-12
-14
-12
-13
-13
-11
-9
-6
-7
-6
-7
-11
-8
-6
-5
-5
-5
-2
-3
-8
-5
1
-6
-1
-6
-5
-2
3
-2
0
-3
-6
-5
-9
-16
-15
-17
-13
-12
-15
-13
-6
-6
-6
-8
-4
-6
-7
-5
-7
-6
-5
-2
-7
-5
-5
-6
1
6
7
8
-2
-19
-39
-66
-100
-133
-162
-160
-124
-85
-42
-14
7
15
19
28
23
22
24
26
22
23
25
23
21
18
15
19
16
13
11
14
12
9
7
8
5
5
6
3
4
-3
-2
-1
-1
-3
-5
-5
-2
-4
-4
-4
-5
2
-2
0
1
2
3
-1
2
6
6
8
8
4
3
3
-4
-3
-3
-4
-2
-4
-8
-10
-7
-7
-5
-6
-4
-6
-4
-4
-6
-3
-4
-3
-4
-5
-5
-6
-2
0
1
1
1
-2
-2
1
3
7
2
0
0
-4
-9
-8
-9
-11
-9
-8
-11
-12
-11
-8
-6
-4
-2
-2
-1
0
0
-3
-9
-7
-2
-3
-8
-10
-9
2
11
16
12
-3
-15
-33
-59
-89
-121
-146
-157
-129
-80
-43
-12
6
21
25
30
29
32
27
30
35
30
29
28
31
26
24
22
17
15
20
20
20
18
15
12
9
11
10
11
7
8
3
5
6
4
4
3
5
9
12
12
9
10
5
2
10
11
12
12
10
8
8
12
11
8
9
4
1
-2
-3
-1
0
-3
-4
-2
-7
-5
-6
-9
-9
-6
-8
-8
-6
-9
-7
-10
-9
-6
-7
-12
-11
-12
-9
-4
-7
-8
-10
-10
-10
-13
-13
-17
-16
-17
-19
-21
-21
-24
-24
-23
-24
-25
-26
-24
-25
-19
-18
-16
-14
-16
-18
-18
-21
-18
-19
-20
-18
-13
-7
-10
-7
-5
-8
-23
-39
-61
-86
-120
-149
-164
-166
-132
-89
-51
-29
-11
0
7
12
11
12
12
16
12
10
5
5
6
12
7
8
10
5
0
3
1
2
2
1
-2
-4
-4
-6
-7
-6
-8
-9
-10
-11
-9
-9
-9
-7
-2
-4
1
2
-5
-4
-4
-4
-6
-4
-4
-4
2
-1
1
-3
-3
-2
-5
-3
-4
-5
-6
-8
-8
-10
-12
-13
-11
-5
-7
-4
-6
-6
-10
-6
-6
-10
-4
-6
-9
-5
-5
-4
-2
-4
0
1
2
3
4
0
1
4
-4
-1
0
-7
-11
-12
-13
-10
-9
-6
-9
-5
-8
-3
-2
-1
-3
4
0
-4
-2
-2
-2
1
4
8
9
19
19
19
13
-4
-22
-45
-76
-110
-136
-147
-137
-98
-61
-25
-1
10
21
23
23
23
22
18
17
17
16
18
18
16
16
17
20
18
15
15
12
7
8
8
9
9
7
6
1
-4
-1
4
-1
-1
2
-5
-4
2
0
-6
-4
2
2
-1
-3
-4
1
2
0
0
-1
-1
1
1
-5
-1
-3
-8
-11
-13
-16
-16
-17
-14
-11
-8
-7
-8
-6
-4
-4
-7
-2
5
6
7
5
6
13
15
17
17
21
23
24
26
27
29
30
32
35
34
30
32
30
32
32
35
35
32
31
28
31
35
39
43
46
50
47
49
47
50
50
44
46
43
48
46
49
54
59
67
67
54
33
9
-14
-50
-79
-107
-113
-84
-41
-7
24
38
47
55
58
55
60
61
65
66
67
60
62
55
53
51
56
56
48
44
36
35
30
37
35
32
30
37
32
34
27
25
25
23
22
20
18
13
13
12
15
16
15
11
12
14
5
9
4
2
3
3
-3
-4
-10
-12
-18
-15
-23
-26
-34
-40
-39
-42
-42
-42
-48
-50
-52
-50
-42
-45
-51
-57
-56
-57
-54
-56
-54
-53
-53
-55
-50
-55
-52
-59
-58
-52
-52
-56
-57
-58
-57
-52
-55
-58
-61
-64
-61
-57
-61
-63
-67
-61
-58
-53
-54
-52
-52
-51
-48
-47
-47
-49
-48
-47
-43
-40
-38
-38
-37
-35
-37
-42
-54
-73
-98
-126
-159
-190
-205
-185
-141
-95
-62
-43
-28
-21
-17
-17
-19
-18
-22
-17
-19
-24
-25
-29
-34
-34
-39
-40
-44
-43
-45
-40
-42
-46
-45
-45
-45
-43
-42
-45
-42
-45
-45
-45
-44
-42
-42
-41
-41
-41
-43
-44
-43
-40
-34
-34
-31
-30
-30
-29
-29
-31
-32
-31
-24
-22
-29
-32
-33
-32
-35
-37
-34
-37
-33
-39
-38
-35
-35
-34
-28
-31
-29
-27
-28
-27
-28
-29
-20
-20
-25
-21
-20
-17
-17
-15
-13
-15
-10
-10
-11
-9
-11
-11
-9
-9
-9
-9
-12
-11
-16
-16
-20
-19
-16
-17
-13
-9
-7
-2
-3
-5
-2
4
7
5
4
-2
0
2
4
11
16
20
24
11
1
-15
-40
-64
-98
-134
-147
-136
-98
-52
-17
4
22
29
35
35
36
36
35
39
38
40
37
33
37
33
34
34
30
29
34
30
30
30
25
30
24
22
21
17
20
24
23
17
22
19
17
18
17
22
21
22
25
20
22
24
29
24
27
27
24
24
24
19
21
21
20
18
19
18
20
16
18
17
13
16
12
13
9
14
14
16
9
9
7
8
14
13
12
11
14
17
17
20
15
15
11
13
12
13
13
9
13
15
12
8
4
2
-2
3
-4
-6
-6
1
3
4
4
4
6
11
9
8
8
9
9
8
5
4
5
8
12
19
16
20
18
5
-20
-45
-73
-104
-134
-154
-142
-103
-59
-23
3
20
24
24
26
32
30
28
24
24
25
26
22
20
20
19
14
17
12
10
6
7
6
2
2
1
1
-4
-2
2
-6
-6
-6
-10
-7
-7
-7
-3
-6
-9
-6
-5
-2
-2
-3
-4
-4
-1
-1
1
3
6
4
-2
-2
0
1
-2
-6
-6
-7
-9
-8
-12
-13
-9
-11
-12
-13
-10
-11
-10
-9
-10
-9
-9
-9
-12
-13
-10
-8
-10
-11
-7
-11
-11
-10
-8
-9
-9
-5
-11
-10
-8
-10
-8
-9
-15
-18
-17
-20
-15
-13
-10
-10
-8
-9
-8
-11
-3
-7
-4
-4
-5
-1
-7
-6
-5
-7
-4
3
7
14
12
-5
-17
-37
-67
-95
-130
-152
-153
-122
-78
-43
-15
8
13
21
24
23
31
30
28
29
30
28
23
24
23
25
27
29
28
32
30
31
30
32
29
24
21
23
24
24
25
20
24
21
20
18
17
16
17
15
13
17
16
16
13
16
20
16
14
14
16
16
16
9
11
7
8
4
-4
-5
-8
-10
-12
-12
-10
-12
-13
-12
-13
-14
-17
-15
-17
-15
-13
-11
-12
-13
-13
-13
-14
-13
-11
-13
-15
-17
-14
-10
-10
-9
-9
-9
-10
-13
-11
-16
-18
-20
-20
-21
-21
-20
-21
-20
-21
-18
-13
-14
-13
-11
-11
-14
-15
-13
-14
-12
-15
-13
-15
-10
-12
-7
0
5
0
-7
-26
-46
-78
-106
-141
-168
-172
-137
-93
-53
-24
-11
4
5
6
9
4
5
1
5
4
6
4
0
-3
0
-6
-6
-8
-10
-10
-12
-12
-10
-4
-13
-13
-15
-17
-16
-20
-16
-18
-16
-17
-19
-23
-19
-17
-17
-16
-11
-12
-12
-13
-12
-9
-9
-7
-7
-5
-7
-4
-6
-9
-10
-9
-11
-15
-18
-14
-15
-17
-17
-17
-14
-16
-18
-20
-17
-10
-13
-12
-14
-20
-14
-14
-13
-6
-12
-8
-10
-9
-10
-7
-7
-1
0
-3
-4
-5
-4
-1
-5
-2
-5
2
3
-2
-3
-2
-8
-10
-12
-12
-10
-9
-10
-9
-6
-5
-5
0
-1
1
-3
-3
-3
0
-2
0
-4
-1
6
13
16
18
9
0
-25
-42
-68
-103
-129
-148
-141
-111
-62
-30
-4
16
23
25
30
23
29
31
27
27
25
23
23
23
27
23
23
19
17
19
18
21
20
24
19
20
17
14
16
12
13
13
15
11
16
14
17
12
18
14
14
10
16
13
16
17
19
21
18
22
19
23
16
20
21
21
19
15
13
12
6
8
7
9
4
2
-2
2
2
4
3
4
-3
-3
0
-8
-5
-9
-5
-8
-6
1
-1
-6
-6
-11
-10
-11
-7
-5
-5
-4
-6
0
-4
-2
-5
-7
-10
-17
-10
-15
-15
-20
-19
-20
-21
-18
-14
-15
-13
-6
-6
-6
-11
-9
-8
-15
-10
-18
-13
-16
-9
-8
3
1
-2
-6
-22
-35
-60
-86
-119
-152
-164
-147
-106
-64
-31
-11
3
11
16
18
18
19
19
22
23
15
17
14
13
10
12
14
11
9
7
10
9
9
7
5
7
5
5
7
3
4
-7
-4
3
2
-2
-5
-4
3
2
1
6
3
3
5
9
3
5
7
13
12
11
6
7
8
10
12
4
6
1
1
-3
-5
-3
-5
-5
-5
-2
-3
-5
-5
-4
-3
-5
-6
-7
-3
-5
-1
-1
3
3
5
4
3
-1
-2
-3
0
4
3
-1
0
-7
-2
-4
-5
-1
-3
-4
-7
-11
-12
-14
-12
-17
-14
-8
-3
-4
-4
-10
-5
-5
-4
-3
3
-2
-1
-6
-6
-9
-2
3
7
16
22
14
-1
-21
-38
-62
-90
-122
-138
-142
-115
-76
-36
-8
-3
12
17
25
24
24
26
23
17
16
16
16
18
25
25
22
11
10
8
4
3
7
1
2
0
-3
-4
-4
2
-2
-7
-7
-9
-4
-8
-9
-14
-13
-16
-7
-5
-3
-2
-3
-2
-8
-5
-4
4
4
5
4
1
7
4
-9
-13
-15
-9
-10
-10
-13
-13
-10
-11
-8
-8
-3
-7
-5
-10
-9
-9
-3
-6
-10
-9
-3
-1
-2
1
0
1
-2
2
-3
0
-4
-4
1
-3
-2
2
4
9
6
5
2
-10
-8
-10
-6
-12
-10
-8
-1
-6
-7
-10
-4
-3
0
-3
-9
-5
2
6
6
0
-3
1
-7
-7
-7
-3
8
14
14
7
-3
-25
-53
-77
-111
-140
-161
-156
-120
-73
-35
-11
7
16
21
19
17
14
11
12
12
13
12
8
7
6
7
9
8
3
-2
-2
0
-1
-2
-3
-5
-4
-4
-3
-4
-5
-6
-9
-11
-12
-16
-17
-13
-8
-9
-10
-6
0
-2
-7
-5
-6
2
5
3
-1
-4
-7
-7
-4
1
-7
-6
-11
-15
-17
-12
-11
-10
-12
-16
-17
-19
-19
-19
-21
-17
-15
-13
-10
-10
-10
-10
-8
-9
-6
-4
-10
-15
-10
-8
-9
-6
-10
-9
-10
-12
-10
-11
-8
-9
-10
-11
-7
-8
-9
-17
-15
-17
-19
-16
-18
-23
-22
-21
-25
-27
-22
-23
-21
-22
-24
-17
-20
-20
-14
-19
-18
-18
-21
-17
-19
-16
-15
-8
-1
-2
-19
-40
-63
-94
-127
-157
-177
-167
-128
-86
-48
-18
-4
1
5
6
3
6
1
2
2
2
6
8
10
8
4
-6
-9
-4
4
3
0
-10
-10
-12
-11
-8
-9
-8
-8
-16
-12
-13
-9
-12
-10
-13
-16
-19
-20
-12
-7
2
-7
-6
-8
-14
-13
-11
-7
-10
-10
-14
-17
-18
-9
-7
-8
-7
-14
-15
-16
-14
-20
-17
-10
-13
-13
-14
-13
-10
-8
-5
-2
-5
-9
-9
-5
-9
-13
-9
-5
2
-2
-5
-5
-4
-2
-5
-6
-10
-6
1
4
-1
-3
1
0
2
0
-6
-8
-10
-14
-10
-15
-14
-6
-6
-8
-8
-12
-8
-3
-2
1
3
2
0
-5
-4
-7
-3
-1
2
5
7
6
14
22
19
5
-12
-36
-61
-93
-121
-141
-143
-111
-70
-32
0
13
24
32
30
28
28
29
26
28
31
33
36
31
32
23
21
20
16
19
24
20
16
7
10
11
9
13
15
14
13
10
12
11
10
12
11
8
5
6
11
17
19
21
20
23
25
38
40
36
27
24
24
27
33
33
26
23
23
24
23
28
25
25
25
30
34
39
34
27
27
30
33
35
41
47
47
43
39
32
32
34
32
35
36
32
34
34
38
39
48
48
46
53
60
57
53
50
44
48
50
44
33
25
19
18
19
19
24
29
27
28
26
33
34
29
22
17
16
11
10
16
15
23
26
17
8
5
5
17
18
19
10
-4
-26
-60
-99
-139
-166
-162
-127
-77
-32
-11
-2
4
12
8
4
6
8
1
-5
-4
-3
-5
-7
-7
-15
-19
-18
-26
-27
-31
-34
-42
-42
-43
-49
-52
-53
-60
-68
-67
-63
-60
-58
-58
-57
-64
-65
-63
-58
-57
-50
-51
-50
-50
-54
-53
-55
-56
-52
-49
-45
-42
-39
-37
-49
-52
-56
-64
-61
-59
-57
-52
-46
-49
-48
-51
-54
-52
-51
-53
-50
-50
-49
-46
-40
-39
-41
-38
-36
-36
-37
-39
-41
-41
-41
-40
-35
-35
-34
-32
-33
-31
-32
-33
-30
-29
-29
-28
-28
-24
-23
-25
-29
-30
-27
-31
-30
-33
-30
-26
-23
-21
-18
-15
-14
-13
-16
-16
-14
-16
-14
-17
-13
-12
-10
-10
-3
2
3
6
-6
-18
-32
-52
-87
-120
-149
-163
-139
-94
-48
-11
11
22
28
30
27
24
26
24
25
19
17
15
17
18
18
20
22
21
19
21
20
17
14
9
13
9
7
8
11
17
18
20
17
12
13
8
-3
-12
-18
-26
-27
-25
-26
-31
-25
-15
-7
-3
6
11
7
6
9
12
8
6
1
3
5
3
2
-5
-8
-5
0
3
1
-2
1
3
4
4
6
8
6
9
5
6
8
14
16
20
15
15
13
13
20
22
24
24
21
19
19
13
13
13
15
21
19
13
16
13
9
14
14
15
11
6
2
9
6
11
12
12
9
7
7
12
17
16
9
6
6
4
7
16
14
9
3
2
0
-2
-20
-43
-69
-96
-125
-146
-141
-102
-56
-15
10
18
26
28
30
29
29
23
15
22
19
24
25
28
26
24
16
9
5
7
13
16
16
12
11
12
13
11
12
5
7
-3
-4
-9
-9
-5
0
0
3
3
-1
2
3
6
7
9
11
8
9
10
9
7
12
8
11
8
8
7
6
8
0
-3
-2
6
8
7
11
8
6
9
11
20
24
21
22
20
16
19
23
27
28
27
23
28
31
36
40
39
41
41
44
45
54
64
67
70
71
70
72
77
78
71
72
66
60
61
61
61
60
62
64
63
59
58
60
61
63
64
60
55
54
53
51
50
43
39
40
40
46
49
49
43
35
28
13
-17
-49
-84
-107
-109
-83
-32
12
35
54
56
55
52
45
41
40
34
29
23
26
32
26
28
23
23
22
25
21
16
6
4
1
0
1
-4
-17
-19
-19
-25
-26
-25
-21
-24
-22
-25
-30
-30
-31
-33
-38
-39
-43
-40
-43
-39
-42
-47
-44
-40
-46
-46
-47
-50
-52
-55
-63
-64
-59
-61
-60
-65
-66
-67
-71
-69
-66
-69
-67
-66
-68
-65
-63
-69
-71
-76
-73
-75
-70
-66
-69
-64
-67
-64
-59
-63
-64
-68
-70
-67
-69
-63
-63
-69
-66
-64
-69
-63
-65
-61
-55
-57
-61
-69
-67
-63
-66
-63
-63
-58
-60
-55
-58
-50
-51
-47
-47
-45
-44
-47
-47
-48
-45
-42
-39
-46
-44
-45
-35
-32
-33
-39
-54
-77
-105
-132
-160
-182
-189
-161
-119
-70
-37
-13
2
-1
-6
-8
-4
0
-3
-9
-8
-8
-17
-18
-18
-18
-23
-27
-29
-29
-27
-26
-27
-28
-28
-30
-30
-26
-30
-28
-24
-30
-34
-35
-28
-33
-28
-26
-23
-22
-24
-22
-22
-25
-21
-16
-14
-12
-13
-12
-13
-15
-8
-6
-7
-5
-5
-9
-15
-14
-13
-18
-15
-16
-15
-13
-9
-4
-4
-8
-10
0
7
8
7
-1
-1
-1
5
6
6
3
2
1
4
5
6
10
10
11
9
7
7
12
9
13
16
13
15
23
20
14
16
15
9
11
6
3
6
9
15
11
11
12
12
8
4
2
5
5
7
6
0
-5
-1
1
3
7
10
11
18
20
16
7
-5
-23
-52
-84
-121
-148
-159
-135
-85
-36
-1
22
30
30
32
31
31
29
30
28
27
30
31
26
24
24
17
14
17
12
7
9
16
14
15
17
18
14
16
18
16
14
16
12
12
10
10
3
7
11
14
13
11
7
9
5
12
17
21
25
21
20
17
19
22
22
19
16
15
17
18
16
11
9
11
12
17
12
11
7
12
6
8
12
10
12
16
16
17
14
12
9
13
15
15
17
14
13
14
14
19
9
6
-1
2
6
8
10
8
0
-2
3
8
4
9
9
10
4
-4
-6
-8
-2
2
4
5
2
1
-2
3
2
1
7
8
3
8
8
8
13
13
12
7
7
-2
-8
-18
-44
-72
-95
-119
-145
-145
-109
-69
-33
2
21
28
27
29
22
17
22
24
23
15
15
19
17
20
22
19
18
16
9
8
6
4
1
1
0
-3
4
4
4
7
2
-10
-11
-6
-11
-11
-12
-8
-8
-8
-7
-7
-5
-6
-4
4
-4
-10
-4
-2
-5
0
-4
-4
1
-2
-5
-13
-16
-15
-10
-11
-9
-9
4
2
-9
-9
-6
-9
-10
-14
-14
-18
-15
-19
-16
-15
-24
-22
-16
-6
-2
-2
-5
-11
-16
-11
-5
-4
-5
-8
-9
-6
-1
-4
-8
-10
-11
-14
-12
-12
-12
-12
-14
-14
-15
-18
-17
-21
-14
-8
-2
-7
-11
-13
-12
-8
-8
-14
-11
-12
-17
-11
-12
-8
-8
-5
5
8
-1
-13
-28
-53
-82
-114
-145
-166
-159
-121
-69
-27
6
14
10
12
14
17
19
17
16
12
8
12
9
3
8
7
5
4
6
4
3
1
-1
-5
-4
-2
-4
-9
-11
-11
-10
-5
-7
-7
-10
-10
-12
-15
-17
-17
-9
-8
-6
-8
-6
-4
-3
-3
-6
-8
-9
-5
3
4
6
4
-9
-11
-8
-3
-2
-6
-12
-13
-17
-17
-13
-9
-7
-7
-8
-10
-10
-4
-6
-4
-6
-6
-9
-11
-6
-2
1
-1
2
0
-6
-8
-7
0
-1
-8
-10
-9
-5
-1
7
1
0
-7
-5
-4
0
-7
-13
-13
-18
-17
-13
-17
-8
-4
-3
1
-3
-4
0
-2
-3
-3
-3
-2
-9
-6
0
-2
3
9
8
10
4
-7
-25
-46
-77
-102
-134
-155
-153
-118
-73
-27
6
24
30
27
28
19
20
16
17
21
17
14
18
15
7
11
14
13
13
11
11
9
10
9
8
1
-1
0
1
-2
-4
-6
-9
-4
-2
-6
-8
-6
-7
-9
-6
-5
-1
-5
-4
-1
6
4
7
3
2
2
5
3
2
3
5
1
3
-6
-5
-3
-6
-9
-7
-8
-4
-12
-7
-10
-10
-6
-10
-11
-7
-3
-7
-4
-5
-4
-8
-4
4
3
-7
-7
-9
-10
-7
-6
-5
-4
-3
-6
-3
1
-1
-4
-4
-2
-5
-9
-9
-13
-14
-15
-14
-15
-14
-14
-12
-7
-11
-8
-8
-7
-11
-14
-9
-9
-12
-11
-12
-12
-10
-7
-4
-4
2
1
-8
-25
-38
-67
-99
-130
-154
-167
-150
-105
-62
-18
-3
10
18
18
14
14
14
8
9
9
12
11
9
12
8
7
8
0
3
3
4
-3
0
-3
-4
-5
-13
-12
-10
-16
-13
-13
-12
-13
-17
-14
-15
-15
-12
-13
-15
-14
-15
-13
-11
-4
-6
-2
-7
-4
-3
-2
-2
-1
-3
-3
-6
-6
-9
-11
-13
-12
-9
-9
-7
-12
-9
-3
3
-5
-3
-5
-5
-4
1
4
6
9
10
10
7
9
12
11
12
11
10
13
14
12
10
13
14
16
15
19
17
15
13
16
16
13
12
7
8
10
8
13
14
12
14
16
19
19
22
19
20
19
17
18
18
17
14
19
22
29
30
35
30
20
7
-15
-41
-68
-100
-126
-128
-97
-48
-1
36
51
62
66
67
67
68
58
56
57
56
62
57
56
56
54
47
43
43
40
39
37
35
34
33
36
33
29
26
24
18
15
9
12
10
9
6
8
7
5
6
-1
4
8
6
10
8
5
7
6
-2
1
1
-2
-5
-5
-8
-12
-18
-17
-14
-17
-15
-18
-23
-20
-20
-25
-25
-25
-27
-26
-27
-26
-25
-27
-28
-24
-24
-24
-24
-25
-24
-26
-20
-23
-22
-22
-20
-21
-25
-24
-21
-21
-20
-20
-18
-19
-21
-16
-19
-20
-25
-26
-28
-27
-28
-30
-28
-29
-30
-29
-29
-29
-25
-21
-18
-13
-17
-19
-14
-13
-9
-11
-7
-8
-8
-5
-1
1
-15
-26
-45
-66
-90
-120
-142
-152
-126
-80
-43
-17
2
12
17
16
14
17
22
25
29
24
25
22
15
14
10
12
16
16
14
10
6
2
2
5
4
-1
1
-1
0
-5
-7
-12
-10
-11
-17
-18
-18
-16
-19
-16
-21
-24
-26
-29
-26
-29
-34
-32
-37
-34
-38
-33
-33
-31
-33
-38
-40
-41
-40
-39
-38
-40
-41
-40
-41
-38
-38
-38
-34
-39
-40
-41
-37
-34
-37
-38
-32
-30
-28
-27
-29
-30
-26
-30
-29
-28
-27
-25
-23
-21
-19
-16
-17
-13
-10
-13
-13
-11
-13
-16
-12
-18
-16
-13
-18
-16
-14
-15
-10
-8
-4
-5
-5
-4
-4
-4
3
4
2
-2
1
-1
6
7
11
15
23
22
18
9
-7
-27
-48
-77
-105
-125
-120
-93
-53
-18
5
24
31
35
36
34
36
33
37
35
35
36
33
32
31
29
28
27
28
26
21
22
22
19
20
18
20
19
15
13
12
9
10
3
1
0
0
6
4
6
6
4
2
6
4
5
5
3
1
6
4
2
5
3
-3
2
0
0
0
-6
-11
-8
-10
-12
-11
-8
-11
-12
-14
-18
-22
-24
-23
-24
-30
-25
-31
-31
-24
-24
-25
-24
-24
-25
-22
-25
-24
-25
-20
-22
-23
-21
-19
-16
-16
-16
-19
-21
-20
-21
-23
-23
-26
-24
-22
-22
-25
-25
-23
-20
-18
-19
-17
-18
-17
-16
-11
-15
-16
-17
-19
-16
-16
-17
-13
-11
-5
-1
1
-9
-27
-48
-73
-97
-128
-149
-153
-124
-86
-46
-16
5
14
16
18
19
15
13
16
18
17
14
10
13
13
8
7
8
10
5
6
4
-1
3
4
2
-5
1
-1
-1
-4
-3
-2
-1
-8
-4
-4
-3
-6
-6
-5
-2
-3
-4
4
3
1
0
-1
1
2
7
6
8
5
2
1
-1
-5
-2
-5
-6
-7
-7
-4
-5
-1
-1
-1
0
-2
-4
1
0
1
3
2
4
3
2
3
3
4
5
6
8
3
7
9
10
7
12
10
9
11
10
7
8
5
3
4
4
3
0
-2
-5
-2
2
5
7
8
7
4
-1
7
3
6
3
6
4
2
6
5
-2
3
11
14
10
10
-6
-24
-47
-70
-106
-131
-146
-144
-112
-67
-31
-3
8
17
22
24
23
25
20
21
24
22
20
19
19
20
17
16
13
9
12
9
13
10
9
6
5
8
6
5
4
3
-1
-2
-5
-1
0
6
3
5
5
6
2
6
6
5
4
8
12
9
6
7
9
7
6
6
3
4
3
1
-3
-3
-6
-13
-11
-12
-11
-9
-7
-4
-7
-4
-9
-6
-3
-3
-4
-6
-7
-4
-4
-6
-7
-5
-1
-2
-6
-2
-6
-4
-2
2
-4
-4
-4
-3
3
7
-2
-10
-8
-12
-12
-12
-13
-15
-17
-14
-16
-13
-8
-6
-9
-5
-3
-9
-9
-9
-8
-8
-8
-7
-7
-6
-2
-4
-4
1
2
2
-4
-17
-33
-55
-85
-115
-144
-161
-151
-115
-72
-32
-7
3
11
17
16
18
17
16
16
15
15
13
11
11
8
8
11
7
3
2
0
-3
-2
-4
-3
-3
-3
1
-4
-5
-6
-3
-4
-5
-1
-1
3
-1
0
-5
-6
-2
-5
-1
0
3
0
-2
2
3
8
3
6
6
2
3
6
1
4
5
2
-3
-2
-4
-6
-6
-10
-7
-4
-6
-4
-7
-7
-4
-5
-5
-5
-2
-2
0
-3
-3
-4
-4
0
3
-1
-3
-4
-3
0
-2
7
7
6
2
-7
-6
-6
-6
-11
-15
-10
-13
-13
-8
-10
-10
-4
-1
-4
-2
1
3
-3
0
0
-4
-3
-5
-5
-3
-2
-1
-6
-4
6
10
10
1
-7
-23
-45
-72
-103
-131
-147
-139
-107
-72
-35
-10
5
14
20
19
25
26
22
20
20
19
16
16
17
16
15
12
10
9
10
7
10
8
4
0
3
1
1
1
4
-2
-4
-3
-5
-4
-2
2
0
-2
-7
-4
-5
-5
-2
0
3
0
4
8
7
3
0
0
0
-2
-1
0
0
-4
-4
-9
-12
-13
-11
-12
-8
-11
-10
-11
-10
-9
-10
-14
-9
-4
-6
-8
-7
-7
-5
-7
-9
-7
-5
-5
0
2
2
-2
0
-2
2
-3
7
8
6
0
-1
-1
-4
-4
-5
-5
-9
-7
-6
-6
-5
-2
2
0
-4
-3
2
4
3
3
0
2
0
-3
0
-3
-5
-3
-3
-1
3
6
-2
-17
-32
-52
-79
-113
-136
-149
-144
-108
-71
-32
-7
7
18
22
20
19
20
18
19
19
19
16
18
20
16
14
16
14
10
8
11
7
12
8
8
7
3
1
0
8
6
-1
-1
2
1
-2
-1
3
1
5
7
7
2
5
3
5
7
10
5
8
9
6
6
8
1
-1
2
4
-6
-8
-14
-15
-11
-14
-17
-15
-21
-18
-21
-19
-17
-16
-18
-15
-18
-18
-11
-12
-14
-14
-12
-18
-19
-16
-17
-12
-14
-17
-13
-10
-10
-14
-11
-11
-9
-4
-7
-10
-14
-17
-16
-13
-15
-17
-14
-16
-17
-20
-18
-16
-10
-10
-12
-11
-13
-10
-7
-7
-5
-6
-7
-7
-9
-12
-8
-2
0
2
-5
-10
-25
-47
-66
-97
-128
-154
-166
-151
-108
-65
-32
-7
6
13
15
14
14
14
15
12
9
7
6
7
14
7
2
3
3
-1
0
2
-5
-3
-6
-6
-5
-5
1
-3
-4
-3
-3
-7
-5
-7
-8
-9
-5
-4
-5
-4
-2
1
-1
6
6
5
9
12
13
12
10
7
8
4
5
3
-5
-2
-4
-5
-6
-7
-3
-9
-9
-10
-13
-13
-16
-20
-16
-16
-17
-10
-14
-17
-18
-15
-18
-16
-17
-17
-14
-14
-13
-16
-16
-17
-17
-14
-20
-16
-16
-16
-12
-12
-15
-16
-19
-24
-22
-23
-26
-24
-24
-24
-26
-21
-22
-17
-16
-16
-18
-14
-15
-14
-13
-10
-8
-11
-8
-7
-10
-6
-4
-2
5
7
2
-11
-30
-51
-83
-112
-138
-156
-144
-112
-64
-23
-4
8
19
23
20
22
21
20
21
22
25
27
28
25
22
23
21
20
17
17
15
14
14
14
15
12
10
16
14
11
10
12
16
19
16
7
6
6
12
12
5
8
11
10
6
15
14
15
14
14
16
14
12
7
8
8
5
7
3
5
4
1
-4
-5
-2
-3
-2
1
-3
2
2
1
-2
-2
-4
0
-5
-7
-4
0
2
-2
2
4
3
3
-1
2
3
3
5
-1
5
5
4
3
2
1
3
4
4
-4
-3
-7
-9
-10
-10
-9
-8
-6
-6
-1
2
2
3
1
2
3
-3
-1
-3
-2
0
2
0
-2
3
5
6
4
-7
-17
-35
-60
-89
-119
-143
-149
-129
-92
-53
-27
-8
8
15
15
21
18
17
14
13
16
14
13
14
11
10
8
4
6
7
7
4
4
6
3
3
-1
-2
-2
-4
-2
-6
-4
-4
-7
-7
-7
0
-5
-6
-5
-5
-6
0
-2
-4
-4
1
4
-1
-4
-4
-3
-3
-3
-5
-7
-9
-7
-7
-5
-5
-6
-4
-5
-7
-9
-7
-8
-8
-9
-9
-8
-5
2
3
4
4
4
1
1
1
4
5
7
8
6
6
5
3
5
3
3
8
5
0
0
0
3
-3
-7
-6
-8
-8
-12
-11
-9
-10
-12
-11
-7
-4
0
-2
-3
-4
0
-1
-3
1
-5
-5
-6
-2
-1
0
9
10
9
8
-3
-18
-44
-68
-101
-130
-153
-151
-121
-76
-40
-8
10
22
22
21
22
17
19
17
16
17
19
14
12
9
14
9
7
8
8
8
4
5
-1
-3
-3
-2
-6
-2
1
0
-8
-10
-6
-8
-11
-6
-5
-4
-4
-5
-4
-2
2
2
2
3
2
3
4
5
8
5
3
3
0
2
1
-10
-9
-12
-9
-13
-15
-18
-19
-17
-15
-17
-16
-14
-10
-9
-7
-5
-5
-3
-6
-9
-4
-4
-6
-7
-5
-9
-5
-6
-4
-6
-5
-3
0
-2
-2
0
1
1
0
-2
-3
-5
-8
-9
-10
-11
-17
-18
-11
-6
-11
-7
-7
-10
-7
-7
-5
-7
-5
-6
-6
-3
-4
-4
-3
-7
0
4
9
10
3
-13
-28
-46
-74
-104
-135
-157
-156
-123
-79
-36
-13
5
13
16
14
16
15
14
18
19
21
16
12
8
4
7
5
5
6
8
4
4
6
3
-1
6
5
-1
-4
-3
-2
-5
-4
-9
-5
-5
-4
-6
-9
-4
-4
-3
-2
-2
-4
4
-3
0
4
2
4
5
3
-1
-5
-3
-2
-1
-9
-11
-8
-10
-14
-13
-15
-17
-17
-14
-10
-8
-10
-10
-16
-18
-14
-12
-10
-13
-9
-7
-10
-10
-8
-10
-4
-8
-7
-8
-10
-5
-4
-6
-8
-9
-7
-6
-8
-5
-4
-3
-8
-9
-9
-9
-13
-12
-14
-16
-15
-15
-10
-6
-6
-7
-9
-3
-4
-4
-2
-4
-6
-6
-3
-4
-7
-6
3
12
8
1
-9
-26
-45
-68
-103
-127
-145
-145
-112
-72
-36
-14
-3
9
14
17
17
15
18
17
18
20
19
18
19
16
14
15
14
19
14
10
7
3
6
8
5
4
1
1
5
3
5
6
-3
-8
-9
-12
-7
-7
-2
-2
-3
-2
1
4
9
10
10
5
5
2
8
2
5
5
3
2
0
-3
0
-6
-5
-8
-7
-7
-10
-6
-4
-3
-7
-8
-9
-6
-5
-5
-7
-7
-8
-4
-8
-8
-11
-9
-9
-9
-8
-5
-2
-8
-9
-7
-5
-5
0
-6
-6
-6
-5
-5
-5
-3
-3
-9
-12
-13
-15
-10
-13
-10
-10
-5
-7
-6
-3
-5
-5
-4
-6
-7
-5
-4
-5
-2
-2
-6
-5
1
8
12
6
-5
-17
-35
-61
-88
-114
-141
-148
-128
-91
-51
-22
-7
7
17
24
24
22
20
21
20
20
20
13
15
17
20
13
17
19
14
7
7
9
8
4
4
5
6
6
4
4
3
1
4
4
0
-5
3
-2
2
-2
-3
1
1
3
3
8
10
12
9
10
11
10
5
8
8
6
4
4
2
-5
-5
-5
-7
-6
-8
-7
-6
-5
-6
-4
-3
-7
-9
-7
-7
-4
-13
-10
-9
-7
-7
-6
-4
-6
-9
-6
-7
-8
-5
-6
-3
0
1
0
-1
-1
-3
-3
-6
-6
-9
-11
-9
-12
-11
-15
-17
-12
-17
-12
-11
-8
-3
-3
-3
-6
-3
-1
-2
-2
-4
-8
-7
-8
-6
-4
0
6
6
6
-6
-20
-42
-63
-89
-120
-143
-149
-135
-96
-52
-22
-5
7
14
20
18
20
17
18
19
18
17
16
17
16
16
16
14
12
10
12
7
7
5
4
4
4
2
0
2
-2
2
-1
-5
-2
-5
-4
-3
-1
1
1
-1
1
-2
1
1
3
6
8
7
9
8
8
6
2
1
2
-6
-4
-7
-9
-7
-9
-9
-9
-9
-11
-6
-9
-8
-4
-6
-3
-1
-2
-2
-5
-5
-4
-2
-4
-3
-6
-8
-7
-6
-7
-8
-8
-9
-9
-5
-4
-6
-6
-5
-6
-6
-7
-8
-5
-7
-7
-10
-10
-11
-13
-16
-17
-14
-15
-12
-14
-9
-8
-6
-5
-5
-7
-4
-8
-8
-9
-7
-8
-10
-6
-5
-3
2
10
2
-6
-21
-41
-70
-102
-133
-156
-158
-130
-84
-43
-15
2
9
12
18
14
20
15
18
12
16
13
15
15
15
14
16
12
8
9
5
5
3
4
5
5
2
-1
3
0
-2
-5
-2
-6
-2
-5
-1
-3
-1
-5
-2
2
-4
1
6
4
9
3
5
3
6
7
7
3
6
4
-2
4
-4
-4
-5
-9
-9
-9
-10
-13
-13
-14
-13
-11
-16
-11
-12
-11
-7
-9
-13
-8
-12
-8
-6
-10
-11
-9
-10
-11
-9
-7
-9
-6
-6
-8
-7
-4
-1
2
0
3
-1
-2
2
1
4
0
-1
-4
-4
-5
-9
-10
-9
-8
-5
-5
6
3
4
6
6
3
1
0
-4
-3
-2
-3
-3
-2
-1
7
7
8
-8
-23
-41
-65
-94
-122
-147
-154
-133
-90
-51
-20
-3
8
14
17
18
18
15
18
15
16
13
13
12
11
13
10
13
9
8
9
8
8
6
1
-1
-3
-4
-3
1
-1
-3
0
-5
-6
-4
-7
-9
-7
-7
-4
-5
-8
-5
-3
0
-2
0
-2
0
0
0
2
3
4
-2
2
-5
-8
-10
-10
-6
-8
-8
-11
-11
-10
-11
-7
-6
-9
-8
-9
-8
-6
-9
-8
-8
-9
-10
-7
-8
-9
-9
-6
-8
-7
-7
-9
-11
-10
-4
-3
-5
-2
-5
-6
-5
-4
-8
-6
-5
-6
-10
-11
-13
-11
-14
-14
-14
-14
-12
-12
-11
-6
-3
-3
-5
-4
-7
-5
-9
-6
-9
-9
-11
-5
-5
-2
7
8
2
-7
-26
-47
-70
-96
-129
-144
-152
-126
-82
-48
-20
-2
8
13
17
18
21
21
20
21
15
16
15
18
15
18
9
11
12
7
12
5
5
3
4
2
4
-1
0
3
-3
1
1
2
3
-3
-2
1
-3
-4
0
-1
-1
2
3
-1
4
1
4
4
6
4
6
4
6
3
4
-1
-2
-5
-4
-4
-5
-6
-4
-7
-4
-5
0
-2
1
-5
2
1
1
0
-2
1
-2
1
1
3
-2
5
2
2
-2
-5
-3
-4
-3
-2
1
1
2
1
-3
-2
0
-2
-6
-5
-7
-9
-10
-14
-11
-12
-13
-14
-16
-12
-12
-5
-4
-4
-8
-5
-9
-3
-6
-9
-9
-4
-6
-4
-3
-2
2
4
5
6
-5
-13
-30
-50
-80
-108
-138
-149
-142
-108
-68
-30
-13
3
6
12
14
16
15
16
15
15
14
16
15
18
14
16
13
12
9
11
8
7
7
3
3
-1
2
-2
2
0
0
-2
-5
-4
-5
-4
-5
-8
-8
-6
-5
-2
-5
-2
-5
3
6
4
4
5
7
5
-2
2
0
2
-3
-3
-8
-4
-3
-10
-11
-10
-13
-11
-9
-9
-10
-7
-11
-11
-9
-10
-9
-13
-9
-15
-11
-9
-12
-8
-7
-8
-5
-5
-5
-4
-7
-5
-7
-8
-1
0
-3
-5
3
-2
2
-1
-1
-5
-2
-4
-3
-6
-8
-8
-8
-13
-12
-8
-8
-6
-4
-6
-1
-2
0
-5
-2
-4
-6
-5
0
0
-5
-5
-5
0
5
8
6
-6
-20
-45
-68
-95
-124
-144
-150
-124
-82
-45
-19
4
7
19
18
17
19
21
17
15
16
16
14
16
15
13
14
10
13
10
9
7
8
3
7
4
3
3
3
5
2
1
1
1
-2
-5
-3
-4
-4
-2
0
2
3
1
1
1
1
-3
4
1
8
4
2
5
1
4
2
-3
-4
-9
-10
-12
-9
-10
-8
-8
-8
-8
-9
-6
-13
-6
-9
-8
-11
-8
-10
-8
-8
-7
-7
-9
-10
-10
-10
-10
-8
-8
-9
-12
-8
-9
-8
-7
-6
-5
-7
-3
-4
-3
-5
-8
-9
-10
-8
-9
-13
-16
-10
-15
-18
-20
-19
-17
-15
-11
-14
-13
-10
-10
-10
-11
-11
-10
-13
-11
-13
-12
-12
-11
-5
-1
7
4
-6
-24
-43
-68
-100
-128
-153
-159
-130
-92
-48
-17
-1
13
15
18
16
15
17
15
16
18
20
15
17
17
14
14
13
8
10
8
7
6
2
2
4
2
-1
2
-2
-1
-1
-4
-6
-5
-3
-4
-7
-5
-6
-3
0
2
3
1
1
0
-1
4
4
6
4
4
4
4
-2
-2
-3
-3
-4
-7
-9
-5
-10
-11
-10
-9
-9
-10
-9
-9
-7
-6
-8
-4
-5
-3
-6
-4
-4
-4
-3
-4
-7
-4
-8
-7
-7
-6
-4
-8
-7
-5
-6
-7
-6
-2
-6
-4
-5
-3
-3
-4
0
-6
-5
-7
-8
-13
-12
-12
-14
-14
-17
-13
-15
-14
-11
-10
-6
-10
-9
-7
-7
-6
-6
-8
-8
-11
-13
-4
-2
4
9
4
-4
-17
-31
-53
-82
-114
-138
-153
-143
-106
-64
-31
-10
6
15
17
20
20
21
19
20
20
17
15
17
15
15
16
16
16
15
13
10
9
9
7
7
7
6
1
1
-1
3
3
1
-5
-6
-3
-2
0
-3
1
4
3
2
3
6
3
4
6
4
6
8
9
10
6
4
4
3
-1
-3
-7
-6
-11
-7
-9
-3
-3
-4
-9
-8
-3
-7
-8
-8
-7
-8
-7
0
-4
-3
-2
-5
-5
-2
-6
-3
0
-3
0
-1
-1
-2
-2
-2
-1
1
2
1
0
4
2
0
4
0
-5
-6
0
-3
-3
-9
-11
-12
-11
-15
-14
-13
-8
-8
-9
-8
-9
-8
-7
-2
-5
-1
-4
-8
-11
-10
-8
-4
-4
2
5
1
-4
-16
-30
-48
-76
-105
-132
-150
-150
-112
-75
-33
-9
3
14
18
18
20
17
15
15
15
15
18
18
15
15
10
9
10
5
9
7
3
1
2
3
5
6
6
2
-6
-4
-5
-5
-3
2
-2
-4
-5
-1
-6
-2
-5
0
1
1
3
2
1
4
6
4
3
8
8
3
-2
0
-4
-2
-9
-9
-7
-9
-8
-11
-10
-12
-10
-8
-9
-9
-10
-7
-6
-8
-11
-10
-7
-6
-10
-9
-5
-5
-11
-6
-4
-7
-7
-5
-6
-8
-7
-4
-6
-5
-7
-5
-4
-7
-5
-7
-8
-4
-4
-5
-4
-3
-8
-8
-11
-13
-12
-14
-14
-11
-15
-11
-8
-11
-6
-9
-6
-9
-6
-11
-7
-8
-7
-9
-10
-11
-10
-7
-3
4
8
6
-7
-20
-39
-63
-89
-116
-139
-150
-137
-100
-62
-31
-13
4
8
13
13
14
17
17
13
15
20
14
13
12
14
13
14
16
10
7
10
8
8
3
5
2
1
5
-1
5
0
2
-2
-2
-2
-2
-1
-5
1
2
1
1
4
4
1
4
1
7
5
5
4
2
-4
-1
1
-3
-3
-4
-7
-3
-9
-7
-10
-11
-12
-9
-8
-6
-6
-6
-3
-7
-2
-8
-5
-5
-5
-3
-4
-2
-7
-5
-10
-6
-6
-10
-3
-6
-5
-3
-5
-4
-5
-1
-7
-5
-6
0
-7
-2
-6
-5
-5
-5
-2
-6
-5
-6
-5
-4
-9
-11
-11
-14
-19
-19
-17
-13
-9
-13
-4
-4
-7
-6
-7
-7
-3
-8
-4
-6
-10
-9
-10
-3
-5
-1
3
1
-9
-19
-36
-60
-88
-115
-136
-149
-134
-97
-62
-29
-7
2
10
12
16
14
17
16
14
19
13
16
14
13
13
11
12
12
9
8
8
5
5
3
3
4
1
2
-4
-1
-3
-7
-3
-7
-5
-2
0
-4
-3
1
2
-4
-6
-3
-5
2
-3
4
2
1
3
3
0
-1
3
-1
-2
-1
-4
-5
-4
-9
-7
-7
-12
-13
-9
-12
-9
-5
-7
-4
-6
-2
-5
-4
-4
-5
-7
-8
-3
-5
-5
2
-5
-2
-5
-7
-4
-1
0
-2
-5
-3
-9
-7
-5
-2
-3
1
-2
-2
-3
-4
2
-1
3
0
-2
-6
-8
-10
-12
-14
-15
-15
-13
-12
-10
-8
-7
-7
-9
-10
-9
-9
-7
-9
-8
-8
-10
-13
-8
-6
-5
0
2
3
-4
-18
-33
-55
-82
-117
-134
-146
-134
-103
-63
-32
-12
7
16
21
24
23
23
19
18
18
17
17
16
17
16
15
14
20
15
13
14
13
7
6
-2
1
0
1
3
3
-2
-2
0
-2
-5
-1
-3
-1
-2
-7
-8
-3
-3
-2
-1
2
5
1
6
8
6
8
9
8
4
3
-4
-2
1
-3
-4
-5
-4
-2
-5
-9
-5
-7
-9
-5
-8
-5
-1
-5
-5
3
1
1
4
3
-1
2
4
2
4
-1
0
2
0
2
1
3
1
0
-1
3
-1
-1
-1
3
-5
-1
1
-1
-2
-1
1
0
0
-4
-5
-7
-10
-15
-16
-15
-16
-15
-13
-12
-15
-11
-8
-8
-8
-8
-7
-8
-9
-10
-11
-11
-10
-11
-7
0
10
6
-1
-9
-25
-46
-76
-110
-140
-162
-162
-126
-78
-41
-19
0
8
10
14
15
12
10
7
12
14
14
9
11
9
9
3
4
6
4
6
3
-2
2
-1
2
-3
-2
-1
-6
-6
-6
-9
-5
-9
-9
-5
-9
-9
-8
-7
-4
-2
-3
-5
2
-1
2
3
3
2
-1
-1
-1
-3
-3
-5
-3
-4
-10
-13
-14
-16
-14
-14
-14
-13
-12
-14
-14
-7
-10
-7
-14
-16
-13
-14
-10
-10
-12
-13
-11
-7
-11
-11
-9
-11
-11
-8
-9
-8
-6
-8
-4
-7
-9
-7
-2
-5
-5
-2
-4
-3
1
1
-3
-2
-2
2
-3
-3
-9
-11
-13
-18
-15
-14
-13
-10
-5
-7
-5
0
-4
-5
-9
-6
-6
-4
-5
-3
-2
-4
-5
3
4
11
4
-6
-19
-39
-65
-91
-122
-142
-155
-139
-101
-57
-25
-6
5
11
19
16
17
15
19
15
20
14
17
11
13
13
9
11
12
12
8
10
12
7
4
6
1
3
3
1
1
-2
2
-2
1
-3
-2
-2
-5
-5
-6
-5
0
-1
2
-1
3
6
6
8
11
8
9
7
4
4
-3
-3
-1
-7
-5
-9
-10
-8
-8
-8
-9
-6
-5
-5
-5
-5
-6
-5
-5
-3
-5
-2
-4
-9
-4
-4
-2
-4
-3
-3
-2
-5
-5
-4
0
-2
-2
0
-3
1
-7
-5
-8
-6
-4
-2
0
0
1
2
3
-2
-1
-1
-3
-6
-4
-8
-13
-12
-15
-10
-13
-9
-7
-6
-3
-4
-7
-5
-5
-5
-6
-9
-7
-8
-9
-7
-5
0
0
3
4
-3
-17
-33
-50
-78
-106
-133
-149
-144
-110
-65
-25
-9
7
15
15
15
13
14
16
15
22
20
20
15
13
14
13
13
16
15
8
10
7
7
10
12
5
4
5
4
6
1
0
3
2
-1
0
1
-2
-1
0
0
2
0
3
3
5
7
5
3
7
7
6
2
-1
1
3
2
-5
-6
-5
-11
-11
-15
-8
-11
-13
-13
-8
-11
-10
-11
-12
-8
-13
-12
-16
-12
-13
-12
-6
-6
-9
-9
-7
-6
-6
-5
-11
-6
-11
-7
-8
-8
-4
-9
-4
-7
-5
-5
-3
-3
-3
-2
-5
-1
-4
0
-3
-3
-4
-4
-12
-9
-15
-12
-15
-14
-15
-12
-10
-16
-8
-10
-9
-6
-9
-4
-4
-4
-7
-8
-9
-6
-8
-4
-4
-2
4
4
2
-7
-24
-38
-59
-87
-117
-139
-144
-124
-87
-49
-20
-2
5
12
18
18
19
17
18
19
21
17
16
18
17
14
16
9
10
7
7
9
5
8
5
10
8
3
2
-3
-2
0
1
3
0
-5
-6
-7
-7
-4
-4
-7
-1
4
7
3
-1
-2
0
-1
3
4
3
4
2
0
-6
-2
-2
-5
-9
-9
-10
-13
-12
-12
-10
-12
-11
-11
-13
-10
-7
-11
-10
-12
-13
-6
-8
-13
-11
-10
-4
-6
-6
-11
-8
-7
-9
-9
-6
-8
-5
-6
-2
-2
-2
-8
-6
-6
-6
-6
-2
-1
-3
-3
-5
-2
-4
-3
-6
-6
-6
-8
-10
-10
-13
-18
-16
-18
-16
-13
-13
-10
-10
-10
-9
-9
-7
-6
-6
-4
-4
-6
-12
-10
-8
-6
4
8
5
-2
-17
-34
-53
-72
-101
-127
-144
-138
-110
-65
-34
-9
7
13
18
20
18
17
17
18
16
14
18
16
17
17
15
15
12
11
13
9
7
7
12
9
7
8
10
5
-1
-4
-3
2
2
2
3
4
-1
0
1
-4
0
5
6
5
5
8
7
9
6
8
10
7
7
7
2
4
-1
1
0
-2
-4
-7
-7
-7
-7
-7
-9
-9
-7
-10
-7
-4
-3
-5
-8
-6
-4
-6
-6
-8
-6
-6
-3
-6
-5
-8
-4
-5
0
-5
1
2
-1
-4
-4
-2
-5
-2
-2
-2
-3
-7
-3
0
-1
0
3
2
2
-2
-3
-8
-12
-10
-10
-8
-9
-13
-12
-15
-16
-13
-15
-13
-10
-10
-11
-12
-15
-13
-13
-11
-8
-13
-10
-12
-13
-3
-1
-2
-1
-11
-24
-38
-63
-98
-124
-153
-157
-128
-92
-50
-24
0
13
18
17
20
18
16
22
16
19
15
16
15
13
10
12
12
8
6
7
8
4
8
4
0
3
3
0
4
-3
-6
-8
0
-2
-2
-2
2
-3
-3
-3
-7
-5
-5
-4
-2
4
-1
3
8
5
11
12
2
0
-4
-4
-6
-10
-9
-12
-11
-8
-10
-9
-10
-8
-5
-7
-10
-10
-11
-11
-10
-9
-5
-5
-8
-10
-6
-8
-10
-9
-7
-6
-9
-7
-8
-3
-5
-5
-6
-6
-5
-3
-6
-5
-7
-6
-5
-9
-6
-2
-2
-6
-2
-7
-2
-3
-2
-4
-5
-5
-7
-8
-11
-14
-10
-15
-17
-14
-16
-16
-8
-6
-10
-7
-4
-5
-6
-4
-5
-6
-9
-12
-8
-9
-9
-4
4
3
4
-3
-15
-31
-57
-81
-110
-136
-153
-143
-110
-67
-24
-4
10
15
15
15
16
19
20
19
18
17
13
11
15
18
11
16
14
9
11
11
8
7
5
3
7
-1
3
4
1
0
0
-6
-2
-5
-8
-3
-3
-3
1
1
1
3
5
2
4
3
-1
1
5
8
1
3
3
4
2
-3
-5
-5
-11
-11
-8
-10
-10
-7
-9
-5
-5
-9
-11
-6
-3
-6
-7
-4
-8
-8
-7
-4
-6
-8
-4
-7
-10
-7
-8
-6
-5
-6
-6
-4
-4
-2
-7
-6
-6
-7
-4
-5
-4
-4
-5
-4
-3
-2
-4
1
1
2
6
2
4
2
-2
-4
-5
-9
-8
-9
-11
-5
-6
-5
-1
3
-4
-1
0
-2
-1
-2
-3
1
-5
-7
-5
-3
-3
8
7
8
2
-15
-29
-48
-75
-104
-132
-148
-146
-112
-72
-34
-11
2
11
12
15
13
16
17
20
16
13
14
13
11
13
17
12
10
14
9
11
11
9
9
11
8
7
3
6
-2
-1
-3
-2
2
-2
0
-1
-4
-5
-4
-5
-5
-1
-3
0
2
3
2
4
1
1
2
4
-1
3
4
-2
-2
-4
-7
-6
-11
-11
-14
-9
-10
-15
-14
-11
-11
-12
-15
-13
-11
-10
-13
-10
-10
-7
-11
-12
-10
-12
-12
-10
-10
-10
-13
-7
-13
-7
-9
-9
-6
-7
-7
-11
-7
-9
-8
-9
-9
-9
-9
-6
-6
-7
-3
-4
-5
-4
-10
-7
-11
-10
-13
-13
-12
-17
-14
-16
-15
-15
-12
-10
-13
-8
-9
-8
-6
-8
-7
-7
-9
-9
-10
-7
-6
-1
5
5
-3
-13
-27
-46
-75
-100
-127
-145
-146
-113
-73
-38
-14
5
12
16
19
18
20
15
17
19
16
18
18
18
13
11
16
13
11
14
9
12
7
8
9
9
9
8
4
4
3
4
2
0
0
-3
-1
-2
-2
2
-3
3
4
-1
3
2
2
5
6
10
7
7
9
9
10
6
4
2
0
2
0
-6
-7
-8
-6
-4
-6
-6
-4
-8
-7
-2
-6
-5
-4
-5
0
-2
-3
2
-3
-2
0
-3
0
1
-1
-4
-4
-2
-8
-4
-3
-6
-7
-5
-4
-4
-4
-5
1
-4
-3
-4
-4
-4
-2
-2
-2
-2
0
-2
-3
-4
-9
-7
-12
-12
-16
-14
-12
-11
-11
-9
-8
-7
-7
-5
-7
-4
-3
-3
-3
-8
-3
-2
-2
4
5
6
5
-5
-22
-41
-66
-97
-125
-149
-147
-111
-73
-31
-10
9
15
16
18
18
16
16
18
16
19
15
17
15
16
14
10
11
9
9
11
11
14
14
7
7
7
-1
1
1
-4
2
1
0
2
0
4
3
2
4
3
4
-2
2
6
3
6
7
1
8
4
10
6
5
8
7
7
1
-1
-1
-3
3
-1
-3
-1
-2
-5
-4
-2
-4
-4
-6
-6
-3
-1
-5
0
-2
-3
-1
-1
4
4
-1
3
-3
0
-3
-5
-4
-3
0
0
0
-5
-3
-3
-5
-7
-5
-6
-3
-5
-6
-3
-2
4
0
-4
-3
-2
-7
-9
-15
-16
-12
-17
-17
-17
-18
-17
-19
-17
-13
-14
-14
-14
-15
-12
-12
-14
-14
-14
-12
-16
-11
-11
-3
3
5
4
-7
-20
-43
-75
-100
-133
-158
-161
-131
-86
-41
-16
-2
8
9
7
7
6
5
7
8
-1
1
-3
-3
-2
-3
-9
-5
-7
-4
-9
-7
-13
-13
-8
-8
-13
-11
-10
-13
-17
-16
-14
-14
-19
-16
-18
-16
-17
-14
-15
-16
-13
-13
-12
-10
-7
-10
-6
-7
-11
-4
-7
-4
-1
-6
-4
-3
-9
-6
-9
-7
-12
-11
-12
-16
-13
-16
-13
-9
-10
-11
-12
-9
-7
-10
-9
-9
-12
-8
-8
-9
-11
-9
-8
-9
-5
-7
-7
-7
-6
-3
-5
-9
-3
-6
1
-4
-2
-2
-2
-5
-2
-2
-2
-2
1
-4
-3
-4
-4
-6
-6
-12
-9
-14
-14
-12
-11
-9
-2
-2
-1
-1
0
-2
-3
-3
-2
1
-1
1
0
-3
3
5
7
10
5
1
-14
-30
-47
-77
-97
-123
-131
-108
-67
-28
4
25
29
36
38
38
39
41
46
46
49
48
50
46
43
38
38
38
38
36
40
35
36
37
33
31
30
32
30
29
29
27
24
24
22
21
19
20
19
19
17
17
18
20
15
15
11
15
18
20
15
17
17
19
20
17
18
15
12
7
4
5
5
2
-7
-3
-9
-9
-6
-8
-8
-8
-13
-13
-17
-16
-16
-20
-25
-27
-24
-28
-27
-25
-28
-29
-29
-30
-33
-31
-26
-29
-28
-33
-31
-32
-28
-31
-30
-28
-29
-26
-22
-20
-28
-34
-30
-30
-30
-30
-27
-30
-27
-35
-34
-36
-41
-37
-29
-26
-28
-25
-23
-25
-29
-31
-33
-26
-22
-25
-23
-26
-30
-28
-25
-15
-15
-17
-27
-41
-67
-86
-125
-150
-171
-176
-147
-98
-55
-29
-14
-5
3
6
8
7
6
-3
2
7
14
15
14
5
6
5
7
-1
-1
2
3
6
1
1
-3
-2
-4
-4
-8
-6
-11
-10
-14
-16
-16
-17
-15
-16
-18
-16
-16
-15
-14
-11
-12
-17
-12
-14
-8
-9
-1
-4
-4
-10
-9
-8
-10
-10
-9
-8
-13
-10
-15
-14
-16
-17
-13
-10
-12
-11
-9
-7
-6
-4
-4
0
-1
-2
2
-4
2
3
4
4
7
8
9
-1
4
2
5
3
8
6
8
5
0
-4
-1
0
-3
-6
-3
-6
-7
-15
-14
-18
-21
-23
-24
-22
-19
-17
-18
-17
-17
-15
-9
-6
-12
-14
-11
-6
-3
-10
-14
-14
-5
-3
5
1
-14
-27
-44
-72
-101
-126
-156
-165
-143
-88
-42
-7
12
19
23
26
24
28
25
27
19
23
19
20
22
19
19
15
16
17
22
22
16
12
16
13
12
12
10
14
7
7
7
9
15
14
13
13
10
10
10
10
15
13
14
12
14
17
19
24
22
22
20
15
19
21
18
16
11
15
14
10
14
12
14
12
12
6
9
5
7
8
7
10
12
14
12
6
5
6
3
4
7
8
4
6
4
7
5
1
5
0
5
0
6
2
4
5
6
4
1
-1
2
-2
-4
-4
-7
-4
-9
-10
-9
-12
-13
-12
-11
-3
-6
-9
-8
-16
-13
-5
-9
-7
-11
-10
-9
-13
-9
-11
-5
0
4
6
-10
-29
-49
-80
-112
-138
-166
-169
-138
-89
-45
-16
-1
5
12
12
10
8
9
8
7
6
5
6
8
4
4
-1
2
-1
-1
4
-4
-5
-10
-11
-9
-6
-11
-13
-14
-12
-12
-12
-15
-16
-17
-15
-14
-15
-17
-20
-14
-10
-17
-16
-10
-11
-11
-4
-9
-4
-3
-4
-1
-9
-10
-7
-6
-4
-1
-4
-7
-11
-12
-10
-13
-10
-11
-8
-11
-11
-11
-10
-8
-12
-8
-12
-12
-13
-7
-7
-8
-8
-13
-8
-11
-6
-6
-6
-2
-7
-3
-1
-3
1
-5
-5
-4
-3
-4
-5
-4
-3
-5
-6
-6
-6
-7
-9
-8
-3
-5
1
4
5
8
4
7
7
10
12
9
14
6
9
7
11
18
20
18
18
8
-3
-25
-51
-77
-109
-135
-139
-117
-73
-30
3
22
30
39
37
42
37
36
34
32
34
32
30
29
34
27
28
22
15
15
11
13
16
12
16
12
10
-1
2
5
4
5
1
-1
-3
-3
-4
-5
-4
-5
-8
-5
-7
-4
2
2
-5
1
4
4
1
0
-4
0
-1
0
3
-3
-1
0
-4
-2
-5
-9
-8
-11
-8
-8
-8
-10
-8
-9
-9
-11
-8
-5
-4
-4
-5
-5
-8
-10
-13
-15
-13
-10
-9
-6
-8
-7
-5
-9
-9
-3
-7
-4
-4
-5
-5
-9
-9
-13
-12
-18
-17
-18
-22
-17
-18
-15
-14
-15
-13
-16
-15
-14
-12
-14
-13
-19
-23
-23
-25
-21
-18
-10
-8
-8
-17
-37
-50
-77
-97
-131
-157
-180
-168
-136
-90
-53
-28
-9
1
3
6
7
5
8
11
8
8
5
7
7
4
8
6
8
6
3
5
2
6
-1
5
2
-1
1
-3
-2
2
1
-2
-7
-10
-4
-8
-12
-8
-6
-7
-5
-5
-4
-5
-2
-3
1
4
3
3
5
4
7
10
9
7
3
5
1
1
2
3
-1
1
3
5
0
3
7
7
9
5
8
3
7
5
3
6
7
7
7
12
11
8
6
3
6
8
12
13
8
10
10
8
9
5
5
0
1
1
3
-5
2
0
-1
-1
4
4
6
10
9
4
8
5
1
6
6
7
3
5
6
9
9
15
14
5
-7
-24
-51
-80
-114
-145
-161
-150
-103
-57
-20
4
15
21
27
25
27
26
27
24
24
20
18
17
19
16
17
14
16
12
10
11
9
8
12
8
3
4
0
2
1
-2
-3
2
2
2
0
1
-2
-1
1
2
4
2
-2
3
2
1
3
3
4
9
12
15
17
7
9
12
10
10
10
8
6
1
-2
1
4
10
11
10
10
10
20
22
14
9
10
16
15
20
17
18
15
16
18
20
19
16
17
15
14
10
11
15
14
18
18
16
13
8
3
1
-3
-8
0
0
-1
-5
2
-3
1
8
4
-3
-8
-6
-5
-1
3
0
0
-1
4
6
8
4
-8
-17
-35
-58
-81
-114
-147
-168
-161
-124
-76
-40
-14
5
6
8
7
2
5
6
3
5
2
-9
-12
-11
-4
-6
-7
-9
-14
-16
-19
-17
-12
-14
-16
-23
-23
-23
-22
-20
-21
-22
-26
-29
-29
-30
-26
-24
-22
-20
-22
-27
-23
-25
-27
-24
-19
-16
-21
-25
-21
-20
-22
-20
-20
-26
-27
-24
-18
-14
-17
-18
-23
-19
-16
-16
-19
-19
-21
-15
-17
-18
-24
-25
-25
-20
-19
-16
-14
-16
-16
-20
-20
-15
-12
-14
-13
-19
-19
-19
-17
-16
-14
-14
-16
-17
-22
-24
-26
-24
-27
-22
-23
-18
-15
-16
-20
-15
-14
-10
-11
-10
-13
-15
-12
-8
-9
-17
-13
-14
-13
-5
3
4
4
-8
-26
-45
-73
-106
-133
-158
-159
-127
-83
-42
-10
9
13
10
11
10
14
22
24
19
20
15
13
10
15
12
7
3
4
10
8
7
5
3
-3
-2
0
0
8
8
2
-1
-1
-6
-3
-3
-3
-3
-4
-6
-4
-1
-3
2
-2
-3
1
-5
-3
-6
0
7
8
7
3
3
4
0
4
-2
0
-8
-4
-3
3
0
-3
-4
1
2
1
0
1
-4
-3
0
1
-4
0
-2
0
-3
3
-6
-3
-6
-5
-3
-6
-7
-9
-14
-6
-2
-1
0
-5
-9
-9
-13
-11
-14
-14
-13
-12
-11
-5
2
-1
-6
-5
-9
-8
-5
2
-1
-2
-6
-6
-5
3
12
14
12
3
-13
-33
-57
-89
-125
-157
-164
-147
-104
-55
-26
-4
9
19
25
26
23
28
23
21
24
24
16
18
19
20
21
15
15
14
12
15
13
13
9
6
4
3
8
5
4
4
0
-3
-5
-7
0
-2
3
-7
-8
-7
-7
-3
-5
-8
-4
0
5
10
12
12
4
6
5
6
0
-2
-3
-5
-8
-5
-2
-1
-5
-5
-3
-1
0
-3
-6
-7
-3
0
2
1
7
2
3
6
7
4
3
5
3
3
-3
-3
3
8
4
3
8
5
3
3
-2
-1
-4
-9
-7
-7
-8
-2
2
3
4
2
7
3
4
3
2
4
6
7
1
2
8
14
16
20
16
5
-10
-30
-54
-82
-113
-144
-161
-138
-95
-45
-10
13
16
21
27
21
22
21
18
19
15
16
20
19
15
13
11
9
8
6
-4
2
3
2
1
-1
-2
0
-5
-8
-9
-10
-10
-6
-9
-7
-9
-6
-8
-7
-8
-13
-10
-12
-11
-4
-5
-6
-2
-2
-4
1
2
0
-6
-4
-8
-6
-5
-2
-5
-5
-10
-8
-10
-7
-7
-13
-12
-3
-3
-1
-5
-11
-13
-11
-9
-14
-13
-9
-10
-8
-6
-7
-10
-9
-8
-7
-6
-4
-5
-4
-6
-4
-7
-8
-9
-9
-7
-10
-7
-8
-11
-8
-4
-3
-2
2
3
4
0
-3
4
3
-1
-1
2
-1
3
8
11
8
10
5
-7
-20
-44
-76
-105
-138
-154
-153
-116
-73
-34
-13
4
12
14
13
17
16
18
17
17
18
17
15
20
14
16
18
16
15
6
4
5
9
12
7
6
4
5
8
12
5
1
1
-1
-2
-7
-3
0
-1
-5
1
0
-6
1
1
3
5
0
1
-2
-1
4
4
3
1
4
0
-1
-1
1
-5
-12
-13
-13
-15
-11
-11
-7
-7
-7
-10
-7
-7
-11
-6
-12
-8
-10
-14
-11
-11
-9
-9
-9
-11
-11
-11
-9
-9
-9
-16
-18
-17
-15
-14
-17
-16
-19
-21
-24
-28
-27
-23
-19
-23
-19
-18
-17
-11
-15
-18
-19
-15
-12
-17
-18
-13
-14
-11
-6
-5
-9
-17
-32
-46
-68
-100
-138
-165
-179
-158
-117
-71
-37
-12
-5
7
12
13
14
14
18
16
10
13
12
8
11
11
5
7
6
2
6
5
4
2
1
3
4
-2
0
-2
-1
-2
0
-6
-4
-8
-4
-4
-1
-7
-9
-7
-5
-3
-2
-3
0
-3
3
8
8
16
12
10
10
3
4
3
5
4
4
3
-4
-6
-7
-5
-2
-2
-4
-5
-5
-3
1
2
-1
0
2
-3
-6
1
3
-3
1
1
-2
-1
1
3
6
4
7
6
-1
-4
-6
-5
-11
-8
-13
-17
-13
-8
-3
2
1
3
1
3
-2
0
-1
0
-2
0
-3
3
5
3
9
14
20
19
4
-8
-32
-55
-86
-124
-152
-168
-154
-111
-66
-29
-2
7
21
22
23
29
31
32
26
25
18
24
27
24
18
18
17
13
13
14
17
19
14
6
9
9
9
11
11
12
8
8
4
7
-1
-1
-1
-2
7
6
6
3
0
2
1
8
9
7
12
7
10
9
9
6
5
7
1
0
-9
-9
-11
-9
-2
2
-6
-9
-10
-10
-11
-12
-8
-4
-6
-5
-3
-12
-12
-12
-9
-8
-6
-5
-7
-7
-7
-4
-8
-13
-10
-10
-11
-12
-13
-12
-14
-15
-24
-23
-24
-20
-26
-21
-24
-20
-18
-16
-9
-10
-8
-10
-14
-11
-13
-13
-11
-12
-9
-9
-3
3
13
8
-2
-22
-41
-66
-107
-135
-166
-176
-144
-91
-48
-16
5
13
16
20
20
13
15
20
17
18
15
15
17
15
14
15
12
13
20
19
16
11
18
21
19
19
16
18
16
16
19
19
16
15
20
15
20
16
16
16
22
24
23
23
23
24
27
27
24
24
25
22
21
22
20
17
15
12
7
7
6
7
3
4
1
-2
2
1
-1
0
-3
2
1
3
3
1
2
3
0
-2
-2
-4
-3
-7
1
-4
-6
-7
-9
-7
-4
-6
-7
-9
-8
-8
-8
-9
-10
-10
-13
-12
-14
-16
-21
-18
-17
-12
-11
-9
-11
-8
-10
-11
-9
-10
-8
-9
-12
-2
1
-1
0
-13
-29
-48
-71
-100
-132
-162
-168
-145
-100
-53
-21
2
10
16
17
17
17
15
8
12
12
9
13
8
8
8
6
3
4
3
4
2
-3
-1
-1
-1
-3
1
-6
2
0
4
-5
-7
-11
-9
-9
-10
-13
-11
-10
-10
-9
-7
-10
-9
-6
-7
-3
-2
-2
1
2
2
4
3
-3
-5
-9
-10
-11
-9
-9
-9
-7
-10
-7
-4
-7
-10
-12
-13
-11
-11
-11
-11
-5
-5
-3
-5
-6
-6
-9
-5
-8
-9
-7
-7
-4
-8
-9
-9
-6
-10
-10
-10
-8
-9
-11
-16
-25
-15
-14
-8
-8
-10
-9
-8
-5
-8
-4
-7
-8
-6
-6
-12
-8
-5
-5
-4
-2
3
7
8
8
-4
-21
-41
-64
-96
-122
-154
-169
-141
-105
-58
-25
-4
11
13
19
14
19
19
20
15
18
18
15
13
14
12
12
11
7
12
7
9
6
4
3
6
3
6
2
0
6
0
2
-2
-4
-2
-5
0
0
1
0
3
-3
-5
-4
-5
2
5
6
7
3
7
6
8
9
10
6
5
4
-2
3
2
2
-2
2
-1
-3
-4
-6
-8
-8
-6
-2
1
2
1
3
4
0
-3
-1
-3
-2
2
1
2
-5
-1
3
5
2
7
3
1
7
3
-1
-5
-8
-14
-10
-12
-9
-7
-2
-1
3
-2
-1
4
5
3
0
8
7
4
0
-2
4
3
-1
6
10
11
12
-1
-7
-28
-54
-85
-119
-150
-169
-154
-114
-67
-32
-10
5
8
13
13
11
13
16
13
18
13
12
9
8
6
6
1
6
1
1
-3
2
4
-4
-5
-9
-14
-14
-12
-9
-8
-6
-12
-19
-20
-22
-21
-17
-19
-17
-12
-16
-12
-13
-11
-15
-11
-8
-7
-6
-6
-9
-5
-2
-4
-7
-9
-11
-12
-11
-15
-14
-15
-14
-15
-21
-19
-16
-17
-13
-16
-19
-15
-18
-13
-13
-13
-11
-13
-14
-12
-15
-11
-7
-8
-6
-7
-8
-3
-7
-4
-8
-9
0
0
-3
-1
-3
-6
-2
-5
1
-5
-9
-8
-6
3
9
8
7
6
3
3
5
10
10
4
8
2
4
-1
4
14
15
19
10
-2
-23
-43
-73
-108
-141
-157
-152
-108
-59
-22
5
15
24
24
22
19
18
19
18
21
16
15
15
12
7
11
13
19
15
16
10
9
8
7
4
3
6
5
1
-3
-4
-4
-7
-5
-2
1
-6
-17
-15
-12
-12
-9
-8
-8
-8
-14
-13
-8
-11
-15
-11
-5
-6
-6
-8
-7
-13
-16
-22
-24
-29
-26
-27
-28
-26
-21
-26
-23
-25
-22
-17
-17
-19
-17
-17
-16
-16
-13
-17
-20
-21
-21
-20
-20
-13
-11
-12
-10
-6
-2
1
-2
-2
-1
4
-5
-2
6
5
3
4
6
-1
1
-1
-1
-1
4
5
9
13
13
14
12
10
10
7
4
3
5
3
4
9
14
18
19
13
-9
-26
-50
-81
-121
-146
-159
-133
-84
-36
-4
12
20
25
29
28
29
28
30
26
30
31
32
26
25
18
24
28
31
29
19
16
21
24
28
22
21
16
18
18
15
16
14
9
8
4
8
10
14
14
15
12
17
25
27
25
18
18
30
28
28
27
16
6
11
17
17
20
13
11
13
1
-3
0
8
8
8
9
11
0
-10
-7
4
11
18
14
9
-5
-8
-5
3
8
6
7
9
2
-7
-20
-20
-13
10
15
13
8
-1
3
4
4
3
1
-5
-10
-19
-13
-9
-8
-8
-2
8
14
9
13
6
8
9
12
9
5
-2
-2
4
4
-4
-1
-2
4
7
-1
-5
-26
-48
-78
-108
-140
-156
-138
-105
-64
-33
-7
5
14
7
5
-4
-5
-1
2
13
11
10
4
7
5
-4
-5
1
3
5
-2
-5
-7
-5
-5
-4
-5
-3
-3
-3
-7
-9
-19
-18
-20
-20
-19
-9
-18
-16
-16
-13
-7
-9
-6
-9
-13
-13
-2
-3
-3
-12
-12
-11
-3
-2
0
-12
-19
-27
-20
-16
-17
-18
-30
-32
-25
-16
-17
-18
-21
-22
-25
-22
-18
-17
-12
-14
-22
-24
-26
-28
-29
-28
-29
-32
-29
-30
-21
-21
-18
-11
-18
-20
-15
-15
-17
-18
-26
-30
-34
-33
-37
-28
-24
-26
-27
-28
-30
-26
-24
-25
-23
-25
-27
-30
-30
-29
-32
-33
-27
-20
-17
-13
-25
-34
-63
-86
-109
-135
-158
-168
-154
-113
-70
-37
-21
-4
-1
-2
3
2
4
-3
-5
-7
-4
2
3
4
4
6
0
0
-4
-4
-2
-7
-7
-5
-3
-4
-3
-4
-7
-4
-5
-5
-5
-11
-8
-6
-5
-9
-12
-15
-14
-13
-2
6
9
7
3
5
5
6
10
3
4
-3
-3
-2
2
8
12
3
-3
-8
-8
-12
-4
-3
-4
5
1
4
-5
-13
-16
-17
-14
-13
-7
-11
-17
-21
-21
-17
-13
-9
-8
-8
-13
-13
-13
-8
-5
5
9
8
6
1
4
-5
-7
-4
1
-3
-6
-6
-2
6
9
12
14
13
12
9
11
13
18
20
22
17
20
19
21
32
38
44
38
26
8
-17
-45
-74
-102
-127
-125
-96
-57
-15
14
30
39
45
47
50
43
46
49
48
46
42
39
42
35
35
32
32
28
27
21
19
20
20
24
18
15
17
16
10
14
12
11
14
6
5
4
3
9
8
9
6
5
3
3
5
6
6
8
7
5
0
6
8
4
6
8
6
-1
-2
-4
-7
-6
-2
-4
-9
-8
-7
-11
-8
-7
-9
-6
-11
-10
-10
-8
-2
3
6
4
1
-3
-2
-2
-1
1
3
4
3
3
2
5
5
1
3
4
8
2
2
3
-3
2
-3
4
4
9
12
13
15
9
4
6
5
3
7
9
6
12
9
5
7
10
19
18
17
-5
-28
-67
-95
-133
-156
-163
-135
-84
-46
-15
-1
12
14
19
19
19
16
16
12
11
7
4
4
2
-1
2
-4
-1
-6
-8
-12
-10
-8
-7
-5
-8
-7
-6
-7
-15
-14
-22
-22
-20
-26
-26
-26
-26
-27
-23
-23
-17
-19
-16
-17
-14
-14
-11
-17
-18
-25
-25
-20
-18
-16
-18
-20
-19
-24
-26
-33
-37
-32
-36
-32
-28
-26
-30
-31
-32
-36
-36
-40
-39
-38
-36
-34
-28
-33
-32
-29
-27
-26
-30
-27
-28
-28
-26
-22
-19
-16
-14
-13
-8
-2
2
-3
-5
-1
-1
-2
-3
-1
2
7
10
14
14
11
17
16
16
8
11
8
6
8
6
9
5
10
18
19
20
12
-5
-23
-47
-85
-115
-150
-163
-142
-93
-48
-19
3
14
22
24
24
26
26
26
25
20
14
14
14
13
11
7
5
7
7
10
5
9
6
7
5
7
5
5
8
7
3
6
6
4
5
3
2
8
8
10
3
6
3
8
9
8
9
12
12
15
13
13
17
19
18
19
13
12
11
9
8
9
8
3
8
8
8
11
11
12
7
5
8
11
16
22
22
18
16
16
14
9
15
14
16
16
15
15
15
13
10
8
1
2
-1
-2
-7
-7
-14
-18
-19
-20
-21
-23
-21
-20
-24
-17
-12
-13
-8
-11
-12
-15
-21
-25
-19
-18
-18
-14
-16
-7
2
5
-3
-8
-19
-46
-79
-106
-137
-168
-173
-146
-104
-69
-42
-23
-10
-1
1
1
1
3
1
1
-1
0
-3
-6
-5
-6
-6
-5
-8
-8
-7
-6
-4
0
-7
-7
-11
-13
-10
-14
-13
-17
-12
-14
-13
-20
-20
-19
-15
-12
-14
-14
-13
-13
-11
-8
-7
-8
-6
-6
-4
-4
-10
-7
-11
-10
-8
-6
-12
-7
-12
-12
-13
-15
-13
-14
-10
-14
-10
-8
-10
-13
-7
-9
-9
-8
-7
-6
-5
-3
-2
-2
3
3
-3
-2
0
2
6
8
10
4
1
-1
-1
-2
-1
-2
-5
-4
-5
-5
-5
0
1
0
-5
-1
-7
-2
-3
3
0
-4
-8
-9
-8
-3
1
4
12
22
23
21
12
-8
-26
-51
-79
-113
-143
-154
-132
-93
-52
-24
-5
7
11
12
13
21
23
18
15
12
15
15
16
15
13
9
10
8
7
2
-1
-3
0
-1
-1
0
1
-4
-10
-8
-6
-9
-6
-9
-14
-13
-17
-15
-13
-14
-19
-16
-12
-12
-15
-12
-9
-5
-4
-5
-3
-4
-10
-15
-16
-15
-11
-10
-8
-10
-17
-16
-16
-18
-21
-23
-21
-21
-15
-17
-15
-12
-6
-9
-4
-2
-5
-4
-9
-8
-12
-6
-7
-11
-1
2
8
8
7
3
4
2
0
0
-6
-3
-12
-11
-10
-9
-7
-3
3
3
7
5
9
6
11
12
13
10
10
8
8
3
3
12
20
31
31
30
23
8
-13
-32
-63
-94
-128
-141
-125
-85
-36
-9
11
20
30
30
31
32
33
36
32
33
27
30
27
32
27
25
20
21
20
15
13
9
9
9
7
6
7
3
-1
2
4
-1
-5
-10
-11
-10
-10
-10
-10
-9
-5
-5
-2
-5
0
0
2
-3
2
-5
-2
-1
3
3
5
2
-7
-10
-17
-14
-17
-20
-19
-22
-19
-17
-17
-13
-14
-16
-18
-16
-15
-10
-10
-9
-7
-8
-7
-3
-3
-5
-6
-5
-3
-5
-1
3
9
9
2
-1
-7
-8
-7
-8
-12
-11
-12
-13
-11
-12
-8
-6
-9
-6
-7
-7
-3
-4
-6
-3
-7
-5
-8
-4
-9
-6
4
8
9
6
-4
-25
-42
-69
-102
-132
-156
-169
-138
-94
-49
-15
5
13
22
21
24
19
15
17
15
14
18
14
18
15
12
8
10
13
9
10
8
4
4
5
5
4
1
3
0
4
1
-3
-4
-7
-8
-11
-8
-6
-5
-1
4
-5
-1
1
4
5
8
10
7
6
3
3
-1
-6
-5
-5
-9
-11
-15
-20
-20
-22
-27
-28
-32
-28
-26
-23
-23
-23
-22
-19
-20
-21
-20
-21
-21
-22
-16
-18
-18
-17
-18
-17
-13
-13
-12
-9
-13
-12
-13
-14
-15
-14
-20
-14
-16
-23
-21
-19
-23
-14
-12
-12
-13
-15
-8
-9
-8
-13
-13
-15
-8
-4
-7
-3
-8
-2
6
8
9
-8
-26
-44
-70
-103
-136
-162
-169
-136
-88
-47
-20
0
4
14
16
20
17
18
15
12
15
15
14
16
16
10
11
14
12
9
13
12
6
2
9
10
13
8
8
6
6
5
3
6
7
8
2
1
4
7
8
9
12
7
10
11
11
14
12
11
12
12
12
13
9
8
8
6
5
3
0
-5
-9
-10
-12
-16
-18
-19
-17
-10
-17
-19
-18
-18
-16
-13
-16
-15
-12
-8
-10
-13
-13
-16
-12
-11
-7
-3
0
-7
-7
-5
-6
-6
-7
-9
-6
-7
-8
2
6
6
8
5
7
6
2
-5
-4
1
5
4
4
3
3
6
3
12
18
23
19
3
-7
-30
-59
-91
-124
-152
-160
-131
-86
-47
-18
-4
1
7
11
14
14
13
13
16
13
8
7
7
10
7
9
9
8
10
3
6
5
1
-1
-1
-5
-8
-12
-9
-5
-9
-6
-6
-4
-2
0
4
4
-1
-2
-2
-3
2
0
-2
3
8
8
10
9
12
7
9
7
4
7
2
4
3
-1
-1
-4
-5
-4
-5
-3
-3
-5
-6
-5
-1
-2
2
3
4
4
3
4
-1
-1
4
5
9
6
7
6
5
6
4
-1
3
3
-1
3
1
-1
-1
2
4
6
7
6
9
7
9
9
12
7
8
9
7
10
12
9
12
17
19
25
24
13
-4
-25
-48
-82
-109
-135
-147
-122
-83
-44
-17
1
11
19
20
21
20
16
17
16
17
15
14
12
10
14
8
7
9
11
10
6
3
-3
1
-3
-4
-6
0
-1
-4
4
4
-3
-6
-7
-4
-5
0
-2
-1
-2
2
0
-3
-2
-7
-2
-2
4
0
5
1
3
0
-1
-5
-11
-12
-13
-12
-23
-17
-19
-22
-17
-20
-21
-21
-23
-17
-20
-19
-22
-19
-21
-18
-17
-18
-14
-18
-13
-10
-13
-13
-12
-14
-14
-11
-15
-14
-14
-19
-20
-20
-21
-21
-20
-18
-16
-17
-12
-7
-8
-5
-5
-7
-6
-8
-6
-5
-1
-7
-7
-10
-6
1
5
10
-2
-24
-47
-69
-96
-125
-148
-159
-140
-100
-63
-33
-14
-5
4
10
11
16
11
8
5
11
12
14
14
11
9
3
7
7
8
7
9
4
2
-2
-4
-1
4
-2
-3
-2
-1
0
-3
0
-2
0
-1
0
-1
2
3
3
5
8
8
9
6
8
10
9
8
9
11
7
6
3
1
-3
-3
0
-4
-8
-12
-17
-16
-13
-11
-8
-11
-8
-10
-7
-10
-9
-4
-1
-5
-4
-2
-7
-6
1
-4
3
6
8
8
7
8
8
2
-5
-7
-13
-15
-16
-17
-15
-11
-8
-10
-4
-2
-2
-2
-2
-3
2
-1
4
0
-1
2
-1
8
11
10
7
1
-15
-34
-62
-86
-117
-144
-153
-136
-100
-57
-27
-1
7
18
25
24
28
23
21
24
22
20
20
19
16
18
16
15
16
11
13
8
11
9
8
5
7
6
5
1
1
-1
-3
-4
-4
-7
-5
-4
0
-1
-5
-5
-6
-1
-5
2
1
1
2
4
5
4
3
0
-5
-4
-6
-12
-11
-10
-17
-20
-23
-24
-23
-22
-25
-23
-23
-23
-25
-23
-23
-20
-19
-17
-15
-19
-19
-18
-14
-10
-9
-7
-8
-10
-7
-6
-11
-8
-11
-10
-9
-9
-11
-8
-8
-8
-9
-4
-2
4
0
-1
-2
0
2
5
-2
2
-1
-4
-2
2
5
15
14
12
6
-17
-36
-59
-93
-125
-153
-161
-136
-97
-53
-19
1
9
18
20
23
22
21
20
19
17
21
19
15
13
15
14
12
13
13
14
12
7
6
9
6
4
8
10
6
-1
5
6
3
-5
-1
4
6
6
7
3
4
4
3
7
11
10
14
14
13
12
12
7
6
-1
-2
-1
-1
-5
-6
-11
-20
-21
-21
-23
-19
-22
-20
-23
-19
-23
-16
-16
-13
-12
-13
-12
-7
-9
-8
-13
-11
-15
-10
-10
-8
-6
-8
-9
-11
-8
-11
-7
-9
-9
-12
-10
-5
-6
-3
-3
-4
-5
-7
-6
0
-3
-2
-1
1
2
4
4
3
10
16
21
20
5
-9
-29
-57
-89
-120
-146
-152
-130
-88
-42
-12
10
19
23
25
26
29
28
28
26
30
23
23
26
27
28
28
22
19
21
18
18
19
14
12
9
10
6
7
9
11
5
-5
-5
-3
0
-3
0
2
-2
-2
0
-4
2
4
12
14
11
11
5
11
12
8
8
4
7
1
-3
-8
-14
-13
-16
-13
-16
-21
-22
-21
-23
-19
-20
-23
-23
-17
-9
-6
-13
-11
-9
-9
-13
-16
-15
-12
0
-6
0
-5
-7
-5
-11
-13
-9
-5
-6
-17
-18
-21
-16
-14
-10
-10
-10
-10
-10
-4
-1
-5
-2
-4
-7
-11
-4
-1
4
5
12
13
6
-5
-24
-40
-63
-95
-126
-150
-154
-134
-92
-54
-25
-5
9
13
20
23
22
25
23
22
19
20
20
20
21
20
20
19
16
16
16
14
16
13
16
13
14
10
9
3
5
4
1
3
6
0
3
7
0
4
7
11
7
9
10
11
12
15
16
16
15
17
16
12
14
9
7
3
0
-5
-3
-3
-8
-8
-7
-7
-10
-10
-8
-4
-5
-2
2
2
-1
-1
1
4
1
7
5
8
7
8
8
9
15
11
5
6
15
17
5
0
-3
-2
-7
-7
-3
-4
-10
-10
-15
-14
-14
-16
-20
-20
-20
-23
-24
-22
-25
-25
-18
-16
-17
-25
-31
-46
-71
-100
-129
-159
-183
-187
-156
-113
-74
-49
-28
-15
-9
-6
-3
4
7
8
7
9
9
6
6
6
3
8
4
8
7
10
7
3
5
1
4
3
3
0
5
3
-3
-4
-7
-8
-5
3
7
13
16
11
10
4
-1
4
7
11
19
27
24
18
12
14
15
12
12
8
9
8
2
-7
-8
-7
-4
-4
-4
-6
-2
-2
-5
-2
-1
-4
0
-3
-5
0
-3
1
2
-1
-9
-3
-4
3
-1
-4
-1
-1
-3
1
-1
-2
-9
-17
-13
-7
-1
-5
0
-5
-4
-6
-2
4
6
6
2
1
-4
-7
-7
6
6
12
12
9
9
-3
-25
-51
-80
-115
-146
-161
-158
-117
-72
-33
-15
-2
10
14
15
16
16
16
16
18
14
14
17
15
14
12
9
11
10
8
8
9
11
12
6
3
2
1
4
5
4
4
3
1
-2
4
1
3
3
-1
5
-2
1
3
2
6
5
9
9
7
12
7
10
3
0
2
-2
-1
-4
-7
-14
-15
-12
-12
-14
-18
-17
-14
-18
-17
-14
-13
-11
-10
-11
-9
-14
-10
-11
-10
-13
-8
-9
-5
-3
-6
-2
-4
-9
-6
-6
-10
-10
-13
-13
-16
-16
-15
-11
-8
-6
-6
-4
-4
-3
-3
-2
-1
-1
0
2
-2
0
2
5
12
12
16
10
-9
-27
-53
-82
-112
-140
-152
-142
-105
-62
-32
-11
5
12
16
18
18
24
28
25
25
28
31
30
24
16
13
13
12
12
14
16
19
18
16
8
4
6
5
10
12
9
10
12
11
9
1
-4
-6
-3
-1
1
-1
3
6
9
9
9
12
11
9
10
8
4
-1
3
-5
-10
-14
-16
-17
-21
-17
-11
-16
-15
-15
-14
-14
-16
-17
-21
-19
-15
-13
-10
-10
-12
-10
-10
-3
0
-6
-7
-8
-5
-6
0
0
-5
-2
-5
-3
-2
-7
-8
-5
-13
-12
-12
-10
-7
-3
1
0
-9
-5
-3
-2
-9
-8
-4
-5
0
-3
0
-5
8
10
6
-2
-23
-40
-54
-86
-113
-145
-164
-143
-114
-71
-39
-21
1
7
12
20
14
16
10
8
8
6
9
5
7
2
-1
3
3
-3
-1
0
-5
-6
-7
-13
-9
-16
-21
-17
-20
-13
-13
-11
-10
-11
-10
-15
-13
-12
-13
-14
-15
-10
-9
-11
-12
-9
-9
-7
-8
-8
-7
-12
-12
-16
-20
-23
-28
-29
-31
-31
-35
-33
-34
-34
-35
-32
-29
-28
-25
-24
-24
-20
-23
-16
-18
-16
-14
-12
-10
-8
-7
-9
-9
-10
-4
-2
2
-5
-7
-10
-13
-14
-16
-12
-11
-9
-15
-18
-15
-6
-4
-7
1
1
3
-2
-3
2
-5
-4
-9
-4
-6
-2
-3
3
11
19
15
4
-11
-30
-56
-84
-120
-145
-158
-139
-94
-53
-20
2
15
26
24
28
26
24
24
24
26
28
22
27
23
24
20
20
20
18
16
18
14
14
12
14
12
17
11
12
5
11
7
9
10
12
10
10
11
10
14
14
14
19
20
21
24
22
21
20
19
16
17
19
20
17
15
11
11
9
6
-2
0
-4
-3
-2
-3
1
-2
-3
-3
1
6
4
4
6
7
6
10
9
9
10
8
9
10
7
12
12
9
5
8
3
2
3
0
2
0
-6
-9
-8
-11
-8
-7
0
-1
-4
-3
-5
-1
1
-4
-4
-6
-9
-7
-9
-9
-6
4
11
11
3
-6
-26
-50
-81
-115
-145
-164
-163
-128
-82
-43
-19
-4
5
11
12
11
12
9
6
7
6
4
-1
2
-4
-5
-3
-2
-7
-9
-10
-10
-9
-10
-13
-9
-11
-11
-11
-12
-11
-14
-13
-13
-15
-13
-11
-9
-10
-7
-2
-4
-2
-1
3
4
2
4
6
4
7
8
2
0
-1
-3
-7
-11
-14
-18
-17
-16
-16
-17
-16
-15
-18
-19
-19
-13
-10
-9
-11
-13
-13
-11
-12
-10
-11
-7
-6
-5
-8
-5
2
0
4
2
2
5
4
6
4
-5
-3
-4
-8
-7
-13
-13
-16
-14
-17
-13
-13
-11
-4
-6
-3
-4
-8
-8
-6
-4
-6
-7
-4
1
7
12
14
12
1
-13
-37
-58
-93
-122
-146
-155
-124
-74
-42
-8
5
15
24
25
21
27
26
28
24
28
23
20
19
17
21
20
18
19
16
18
19
18
20
18
13
15
10
12
10
7
12
7
6
7
4
10
7
8
9
8
13
9
12
10
16
14
15
9
14
13
11
13
11
9
8
-2
-1
-2
-6
-6
-9
-13
-13
-11
-10
-10
-7
-10
-12
-10
-8
-8
-6
-5
0
6
-1
-5
-6
-9
-5
-7
0
3
-1
-2
-3
-5
5
2
1
1
-5
-2
-7
-11
-7
-9
-12
-12
-13
-11
-7
-8
-6
-10
-9
-4
-6
-1
-6
-7
-2
-10
-4
-7
-7
-4
-3
4
10
2
0
-8
-26
-53
-79
-111
-143
-157
-153
-113
-75
-37
-17
-4
7
10
16
17
20
