# ASI test file format
# {"":{"device ID": "","comments": " 5 minutes warm up, 30 minutes run and 5 min cool down. Electrode gel in the fabric. Saturation at the beginning of the signal.","keywords": "FieldWiz, Version 2, Run","firmware version": "0.6.3","device": "FieldWiz + T-shirt version 2","sampling rate": 250,"resolution": "[16-bit]","date": "2020-03-15","column": ["A1","ECG"],"sensor": ["RAW, ECG"],"label": ["ECG"]}
}
# EndOfHeader
-36
204
892
1345
1541
1633
1672
1692
1700
1705
1710
1708
1708
1711
1710
1709
1710
1709
1709
1707
1712
1709
1712
1708
1712
1709
1709
1708
1711
1710
1709
1710
1708
1711
1708
1710
1710
1710
1709
1709
1708
1709
1708
1709
1708
1710
1712
1709
1710
1711
1707
1709
1709
1709
1709
1712
1712
1709
1708
1708
1708
1708
1705
1708
1707
1707
1705
1708
1712
1706
1707
1709
1706
1704
1706
1707
1709
1708
1706
1689
1673
1658
1644
1626
1609
1599
1581
1568
1557
1541
1527
1514
1500
1484
1472
1457
1447
1433
1420
1407
1396
1381
1370
1361
1347
1334
1321
1312
1301
1286
1276
1263
1251
1239
1229
1218
1207
1195
1183
1172
1162
1153
1143
1130
1121
1110
1098
1092
1080
1072
1062
1052
1039
1033
1022
1013
1005
994
984
977
966
959
948
940
930
921
914
904
897
888
880
870
862
856
848
842
831
824
816
810
799
792
788
777
770
761
754
749
742
735
727
719
715
706
700
691
688
679
676
669
662
652
647
642
634
629
625
617
612
605
600
596
590
582
578
570
565
559
555
549
545
539
533
529
520
519
513
506
504
497
491
488
485
480
473
468
463
461
455
448
447
443
435
432
428
424
419
416
412
409
404
400
397
392
388
384
381
375
372
370
363
359
359
354
351
348
344
342
336
334
330
327
324
320
319
313
310
310
306
299
298
295
292
292
285
284
280
275
276
273
270
267
263
263
261
256
253
250
247
247
245
239
240
236
234
229
227
224
223
221
220
219
214
214
210
209
205
203
200
199
197
195
192
189
188
185
185
185
180
179
178
174
171
173
171
167
167
165
163
162
158
159
156
155
155
153
154
148
148
147
144
141
141
141
137
136
136
135
133
129
132
128
125
125
125
119
121
120
120
118
116
115
111
113
112
112
110
107
106
107
104
102
101
102
100
99
97
97
95
95
93
95
94
92
90
89
89
88
87
88
86
83
82
84
78
79
79
79
78
77
75
78
71
72
73
72
71
69
70
70
68
67
66
66
64
63
63
64
63
61
60
61
59
57
60
57
59
57
56
55
54
54
51
51
56
50
50
49
48
50
48
49
47
48
46
43
43
43
43
43
43
43
42
44
41
40
40
38
40
37
40
38
36
36
37
35
36
35
33
32
34
34
34
31
34
32
32
32
33
28
28
31
28
28
29
27
25
26
24
25
26
25
23
24
24
24
24
23
24
21
23
22
20
22
19
23
19
22
20
19
19
21
20
18
18
20
20
16
17
17
20
18
18
14
15
16
16
16
15
16
15
13
13
14
14
13
15
13
12
10
12
12
12
10
12
10
10
11
9
10
9
10
11
7
10
10
8
8
9
7
8
7
9
7
7
7
8
8
8
6
6
6
6
6
5
6
5
5
5
8
5
6
3
2
3
3
3
3
2
4
2
4
2
2
0
3
-1
2
-1
2
1
4
1
3
1
1
2
-1
2
1
1
1
-3
1
0
-2
-2
-1
-1
-2
-3
-3
1
2
-1
-5
0
-3
-3
-2
-5
-5
-1
-2
-3
0
-3
-3
-4
-2
-5
-3
-7
-3
-3
-2
-2
-5
-3
-7
-5
-5
-5
-4
-3
-5
-6
-6
-3
-3
-5
-4
-6
-5
-6
-3
-4
-4
-4
-6
-4
-5
-7
-5
-4
-4
-5
-6
-5
-5
-9
-9
-7
-4
-6
-7
-5
-5
-5
-4
-6
-6
-8
-7
-6
-7
-7
-7
-6
-7
-9
-6
-7
-7
-5
-6
-5
-5
-5
-8
-5
-6
-7
-8
-7
-7
-6
-8
-9
-7
-6
-6
-8
-11
-12
-6
-5
-9
-6
-9
-8
-7
-8
-9
-8
-9
-11
-8
-7
-9
-9
-7
-7
-8
-8
-8
-6
-8
-8
-9
-9
-10
-8
-10
-9
-10
-9
-9
-11
-9
-9
-8
-7
-9
-9
-10
-11
-10
-11
-8
-9
-9
-11
-9
-9
-8
-9
-9
-10
-8
-10
-9
-8
-11
-8
-10
-11
-10
-9
-10
-10
-11
-10
-9
-11
-8
-13
-9
-10
-12
-8
-9
-8
-11
-10
-11
-10
-11
-12
-11
-10
-10
-11
-9
-14
-9
-8
-10
-11
-10
-11
-11
-9
-11
-8
-10
-12
-11
-9
-11
-8
-11
-10
-11
-10
-11
-11
-11
-13
-12
-13
-11
-11
-11
-12
-11
-10
-12
-11
-11
-9
-11
-12
-8
-11
-12
-11
-13
-9
-10
-13
-12
-13
-10
-13
-11
-11
-11
-12
-11
-13
-12
-11
-12
-12
-11
-13
-11
-8
-13
-12
-12
-13
-12
-13
-11
-13
-11
-11
-10
-12
-12
-12
-10
-11
-13
-12
-11
-14
-10
-8
-11
-9
-10
-13
-8
-12
-10
-12
-13
-90
74
394
683
896
1036
1123
1176
1200
1211
1209
1204
1197
1182
1172
1156
1143
1129
1117
1101
1085
1075
1061
1048
1034
1022
1012
996
983
975
961
951
940
928
916
903
894
887
874
864
854
844
834
825
811
805
796
785
777
767
757
750
739
735
724
715
707
700
691
684
675
665
657
653
644
638
630
624
613
606
601
593
589
581
575
568
560
551
549
542
534
530
521
517
510
505
498
492
490
483
478
472
464
462
456
452
445
440
436
430
425
420
418
409
405
399
399
392
386
382
379
371
372
365
359
358
351
345
346
339
337
333
329
325
323
317
313
310
307
302
297
297
293
291
286
284
280
275
273
269
268
264
260
258
252
254
249
245
243
241
239
235
231
225
226
224
220
219
215
212
209
207
204
202
200
198
195
192
191
188
185
185
184
180
176
174
173
172
172
164
165
162
161
159
158
156
154
152
148
145
147
144
144
142
140
137
136
136
133
132
128
128
126
125
126
122
122
117
118
116
115
113
113
110
111
109
104
105
106
102
102
97
98
97
96
97
96
92
92
91
91
89
86
83
84
86
83
82
79
81
79
78
74
76
76
73
70
72
68
72
70
67
68
67
66
66
64
64
64
62
59
59
56
57
57
55
59
55
51
54
53
50
52
53
49
51
47
47
48
49
50
48
44
45
44
42
41
41
42
40
42
40
39
37
37
39
36
37
33
35
33
34
31
35
31
31
32
31
36
29
30
29
-117
-228
-277
-298
-304
-309
-34
551
1081
1379
1514
1575
1604
1614
1620
1622
1624
1624
1623
1626
1628
1625
1625
1623
1626
1624
1627
1628
1626
1623
1625
1625
1627
1625
1627
1627
1626
1623
1626
1627
1628
1625
1625
1626
1623
1628
1621
1609
1591
1573
1555
1540
1524
1508
1492
1478
1464
1452
1436
1419
1408
1393
1379
1365
1351
1338
1326
1311
1303
1288
1276
1259
1252
1238
1226
1213
1201
1189
1178
1168
1153
1143
1132
1122
1110
1098
1089
1078
1065
1058
1048
1035
1011
727
219
-82
-212
-273
-300
-308
-314
-317
-317
-317
-317
-319
-319
-320
-320
-320
-319
-320
-322
-318
-319
-322
-320
-318
-320
-322
-323
-321
-321
-323
-319
-320
-323
-320
-321
-319
-322
-324
-321
-320
-322
-322
-323
-324
-320
-321
-322
-325
-322
-325
-320
-321
-323
-322
-323
-323
-324
-322
-322
-324
-325
-325
-320
-323
-325
-324
-323
-325
-326
-325
-322
-323
-325
-326
-324
-324
-322
-325
-325
-325
-324
-324
-324
-324
-320
-324
-324
-327
-324
-325
-323
-325
-325
-324
-325
-325
-327
-325
-325
-325
-324
-329
-327
-325
-325
-324
-327
-324
-324
-324
-324
-323
-327
-327
-325
-326
-327
-327
-327
-324
-327
-326
-327
-326
-329
-328
-324
-327
-327
-327
-327
-324
-329
-327
-329
-329
-327
-329
-327
-328
-329
-326
-329
-327
-328
-330
-326
-329
-324
-327
-327
-329
-324
-326
-328
-332
-326
-326
-330
-329
-328
-331
-329
-328
-327
-330
-330
-330
-327
-328
-324
-324
-319
-318
-313
-309
-308
-307
-305
-301
-298
-295
-294
-292
-287
-287
-284
-282
-280
-278
-277
-271
-271
-269
-265
-263
-262
-260
-261
-255
-254
-253
-251
-251
-246
-244
-245
-244
-240
-236
-234
-235
-233
-232
-226
-224
-226
-223
-220
-221
-217
-217
-128
188
543
833
1037
1167
1248
1292
1311
1311
1304
1289
1268
1264
1241
1207
1185
1165
1141
1110
1077
1048
1017
1013
1040
1059
1022
804
464
140
-108
-232
-289
-315
-327
-328
-330
-330
-333
-332
-338
-334
-337
-331
-337
-337
-336
-336
-335
-336
-335
-334
-336
-335
-337
-334
-337
-334
-334
-337
-336
-337
-336
-334
-335
-336
-335
-337
-338
-334
-335
-336
-336
-336
-337
-337
-337
-337
-338
-332
-329
-325
-320
-319
-313
-312
-310
-306
-303
-299
-295
-295
-289
-288
-287
-282
-279
-281
-277
-271
-269
-267
-266
-260
-261
-258
-254
-253
-252
-248
-245
-245
-245
-241
-242
-237
-233
-232
-228
-228
-225
-225
-223
-223
-219
-219
-214
-213
-212
-211
-210
-208
-204
-204
-203
-202
-202
-198
-196
-195
-194
-195
-190
-189
-191
-186
-186
-185
-180
-180
-180
-178
-177
-176
-174
-173
-172
-168
-168
-169
-166
-166
-167
-160
-159
-160
-160
-160
-157
-155
-154
-154
-152
-153
-153
-149
-148
-147
-146
-144
-145
-143
-145
-142
-141
-138
-136
-136
-139
-136
-135
-132
-135
-130
-130
-130
-131
-131
-131
-128
-125
-125
-123
-125
-121
-123
-121
-121
-118
-119
-117
-118
-117
-117
-113
-115
-114
-114
-112
-113
-109
-112
-110
-109
-107
-105
-108
-104
-105
-104
-102
-104
-101
-105
-103
-101
-100
-101
-98
-99
-98
-96
-98
-97
-95
-97
-97
-92
-94
-94
-93
-93
-90
-93
-88
-91
-91
-89
-89
-91
-86
-89
-87
-89
-85
-87
-83
-84
-84
-85
-82
-83
-83
-80
-81
-79
-79
-78
-79
-78
-79
-77
-76
-77
-76
-75
-74
-76
-73
-73
-73
-72
-75
-74
-73
-72
-72
-71
-69
-71
-70
-68
-69
-69
-70
-69
-67
-68
-69
-68
-66
-69
-64
-67
-63
-67
-63
-65
-60
-63
-60
-63
-64
-65
-61
-60
-61
-61
-61
-62
-63
-59
-60
-59
-58
-61
-60
-58
-57
-61
-58
-58
-59
-54
-59
-56
-56
-57
-55
-54
-56
-52
-55
-54
-55
-55
-55
-55
-55
-53
-52
-51
-53
-52
-51
-52
-53
-49
-52
-50
-52
-49
-50
-48
-50
-51
-51
-49
-50
-51
-49
-48
-48
-49
-45
-49
-48
-47
-50
-48
-49
-46
-47
-50
-44
-48
-44
-47
-46
-46
-47
-45
-47
-45
-42
-44
-43
-45
-42
-45
-40
-45
-44
-42
-44
-43
-41
-42
-43
-41
-43
-41
-40
-41
-41
-45
-39
-41
-42
-40
-40
-42
-40
-39
-39
-40
-40
-40
-38
-38
-39
-39
-39
-27
-15
-20
-24
-30
-32
-37
-37
-41
-39
-36
-39
-37
-39
-40
-37
-40
-39
-40
-37
-39
-37
-38
-36
-39
-38
-37
-37
-38
-36
-36
-37
-38
-36
-38
-34
-36
-37
-34
-34
-35
-37
-36
-37
-35
-35
-35
-37
-34
-34
-34
-34
-34
-35
-37
-36
-35
-36
-32
-33
-34
-32
-35
-34
-32
-33
-33
-33
-35
-35
-32
-32
-31
-33
-33
-32
-32
-30
-33
-33
-32
-33
-32
-35
-30
-33
-32
-32
-30
-34
-32
-31
-31
-32
-29
-30
-33
-31
-33
-33
-31
-31
-32
-33
-30
-31
-31
-31
-33
-32
-30
-30
-29
-31
-31
-33
-29
-31
-33
-30
-30
-28
-28
-28
-29
-30
-29
-29
-28
-29
-28
-28
-30
-31
-30
-29
-27
-28
-27
-27
-27
-30
-28
-28
-30
-28
-29
-30
-29
-27
-29
-28
-28
-31
-30
-27
-31
-30
-29
-28
-28
-27
-30
-29
-27
-29
-27
-28
-28
-24
-29
-31
-27
-26
-26
-27
-29
-28
-28
-27
-27
-26
-26
-27
-29
-26
-27
-27
-26
-25
-25
-29
-27
-24
-25
-25
-28
-29
-26
-28
-24
-25
-26
-27
-26
-25
-26
-26
-26
-28
-27
-27
-26
-26
-24
-27
-27
-26
-26
-24
-29
-26
-27
-25
-26
-27
-28
-25
-27
-25
-25
-27
-24
-25
-26
-25
-29
-24
-25
-26
-26
-24
-27
-24
-27
-27
-25
-24
-24
-25
-26
-23
-25
-25
-26
-25
-26
-26
-25
-24
-22
-24
-26
-25
-26
-27
-23
-25
-26
-27
-25
-25
-25
-25
-25
-26
-25
-25
-24
-22
-24
-27
-24
-26
-25
-24
-20
-25
-26
-25
-25
-24
-25
-27
-24
-25
-22
-26
-25
-20
-24
-25
-25
-24
-21
-25
-24
-24
-26
-23
-23
-23
-24
-26
-25
-22
-24
-23
-23
-25
-26
-25
-23
-21
-25
-27
-24
-20
-26
-23
-22
-26
-24
-24
-21
-22
-25
-27
-25
-23
-23
-25
-23
-24
-25
-27
-25
-24
-24
-25
-20
-23
-23
-23
-22
-24
-25
-24
-24
-23
-24
-24
-24
-22
-24
-23
-23
-22
-25
-24
-25
-25
-22
-25
-24
-22
-24
-22
-22
-26
-23
-24
-24
-22
-23
-25
-25
-25
-25
-25
-22
-24
-22
-24
-23
-22
-21
-22
-23
-21
-23
-24
-26
-22
-23
-25
-21
-24
-25
-25
-21
-22
-25
-24
-23
-22
-21
-23
-24
-24
-20
-24
-22
-21
-24
-23
-23
-23
-24
-22
-23
-25
-21
-22
-22
-25
-22
-23
-24
-25
-25
-23
-22
-22
-23
-23
-25
-25
-25
-22
-23
-21
-24
-22
-23
-23
-24
-23
-22
-24
-24
-22
-20
-23
-24
-21
-25
-22
-21
-21
-23
-20
-21
-21
-21
-22
-20
-21
-23
-22
-23
-22
-20
-22
-23
-21
-20
-23
-22
-22
-22
-23
-24
-21
-22
-23
-23
-21
-22
-23
-20
-23
-23
-22
-22
-22
-21
-25
-23
-21
-22
-20
-23
-21
-23
-21
-21
-21
-22
-20
-22
-25
-22
-22
-22
-22
-20
-23
-21
-21
-22
-18
-24
-24
-21
-21
-23
-23
-20
-22
-23
-20
-22
-20
-22
-21
-21
-24
-22
-21
-25
-21
-22
-20
-20
-20
-20
-23
-24
-22
-22
-21
-22
-21
-21
-20
-19
-23
-20
-23
-22
-22
-21
-23
-21
-23
-23
-23
-22
-20
-25
-21
-22
-21
-20
-20
-21
-20
-21
-20
-23
-22
-20
-20
-20
-25
-21
-23
-25
-23
-23
-21
-23
-23
-21
-20
-20
-23
-22
-23
-22
-22
-22
-22
-22
-20
-22
-20
-21
-23
-22
-22
-19
-20
-21
-20
-21
-23
-22
-18
-23
-20
-22
-21
-21
-23
-21
-19
-21
-21
-21
-20
-22
-21
-24
-20
-21
-25
-18
-21
-20
-23
-20
-22
-19
-18
-21
-21
-20
-23
-22
-23
-22
-23
-21
-21
-20
-20
-20
-23
-20
-21
-21
-22
-23
-20
-20
-21
-23
-22
-18
-22
-22
-20
-22
-21
-20
-22
-22
-22
-20
-23
-23
-20
-20
-21
-21
-21
-20
-22
-22
-20
-20
-23
-21
-19
-21
-20
-21
-20
-19
-23
-22
-22
-21
-22
-18
-22
-20
-20
-22
-20
-21
-23
-20
-23
-19
-22
-18
-21
-21
-20
-20
-21
-23
-24
-20
-21
-21
-20
-23
-22
-21
-21
-21
-20
-21
-19
-20
-20
-20
-19
-19
-20
-20
-20
-21
-21
-20
-21
-22
-22
-20
-21
-21
-20
-20
-21
-20
-24
-23
-21
-20
-21
-20
-23
-21
-22
-21
-21
-20
-21
-23
-22
-21
-21
-20
-21
-22
-21
-21
-18
-22
-21
-20
-20
-22
-18
-20
-20
-19
-20
-22
-21
-21
-22
-20
-20
-21
-19
-21
-21
-22
-22
-19
-20
-20
-23
-20
-21
-18
-21
-22
-21
-21
-19
-20
-21
-22
-20
-20
-19
-21
-19
-22
-20
-23
-21
-20
-21
-22
-21
-23
-23
-18
-20
-19
-23
-19
-20
-21
-18
-22
-20
-21
-18
-21
-20
-23
-20
-21
-19
-20
-21
-21
-19
-20
-21
-22
-20
-21
-22
-22
-21
-21
-21
-21
-22
-18
-20
-21
-20
-20
-21
-21
-20
-21
-20
-19
-20
-20
-20
-20
-21
-19
-22
-17
-20
-21
-22
-20
-21
-22
-21
-21
-20
-20
-18
-21
-21
-21
-20
-21
-19
-18
-21
-20
-22
-21
-20
-20
-25
-19
-19
-22
-20
-21
-21
-19
-20
-19
-22
-18
-21
-19
-21
-21
-21
-21
-18
-20
-21
-16
-18
-19
-21
-18
-19
-21
-20
-21
-22
-20
-20
-20
-21
-20
-20
-19
-19
-19
-20
-20
-20
-20
-19
-22
-19
-20
-20
-19
-21
-23
-20
-20
-22
-20
-20
-22
-21
-23
-22
-18
-20
-20
-21
-18
-21
-21
-20
-20
-21
-20
-21
-20
-19
-20
-19
-18
-19
-20
-18
-19
-22
-20
-18
-22
-18
-20
-21
-21
-23
-20
-21
-19
-19
-20
-21
-20
-18
-20
-22
-20
-19
-20
-21
-21
-21
-18
-22
-22
-20
-16
-21
-18
-20
-20
-18
-17
-21
-19
-20
-19
-20
-21
-20
-18
-20
-22
-20
-18
-20
-19
-19
-20
-19
-19
-20
-19
-19
-19
-18
-21
-22
-21
-18
-19
-20
-20
-20
-21
-20
-21
-19
-18
-20
-18
-20
-16
-19
-21
-20
-18
-21
-20
-21
-20
-20
-19
-18
-20
-19
-19
-21
-20
-22
-21
-20
-19
-20
-20
-21
-21
-20
-21
-21
-19
-21
-19
-21
-22
-20
-21
-19
-21
-18
-22
-21
-19
-20
-22
-20
-21
-20
-20
-18
-18
-18
-18
-20
-20
-19
-20
-20
-20
-20
-17
-21
-20
-19
-18
-25
-21
-21
-19
-20
-20
-21
-20
-21
-20
-21
-19
-21
-20
-20
-19
-21
-22
-19
-19
-19
-20
-16
-19
-21
-20
-19
-21
-19
-19
-20
-19
-20
-21
-21
-21
-18
-21
-22
-19
-18
-21
-20
-21
-20
-18
-19
-22
-20
-20
-22
-20
-21
-19
-20
-20
-23
-23
-20
-20
-20
-20
-20
-23
-22
-21
-21
-16
-19
-20
-20
-20
-19
-20
-19
-19
-18
-20
-18
-21
-21
-18
-21
-20
-19
-18
-19
-19
-21
-16
-18
-19
-19
-20
-20
-18
-18
-20
-20
-20
-18
-18
-19
-19
-21
-18
-17
-18
-23
-20
-20
-19
-18
-20
-20
-19
-18
-20
-20
-19
-19
-18
-18
-18
-22
-19
-23
-20
-21
-21
-19
-20
-21
-20
-18
-20
-19
-21
-18
-21
-16
-14
-18
-22
-19
-19
-19
-21
-20
-16
-22
-19
-19
-18
-20
-16
-21
-19
-23
-20
-21
-19
-21
-18
-21
-18
-19
-21
-18
-21
-22
-19
-18
-19
-18
-20
-19
-21
-22
-19
-19
-20
-20
-18
-20
-21
-20
-22
-20
-20
-20
-20
-18
-20
-20
-18
-22
-21
-18
-18
-19
-20
-21
-19
-21
-20
-19
-20
-16
-18
-21
-21
-21
-16
-20
-21
-20
-20
-18
-22
-22
-20
-21
-19
-20
-20
-18
-20
-21
-18
-19
-18
-21
-20
-18
-18
-19
-21
-20
-20
-18
-18
-18
-18
-21
-21
-20
-20
-19
-18
-21
-21
-20
-19
-17
-20
-19
-16
-19
-17
-19
-20
-18
-21
-16
-18
-19
-21
-19
-20
-19
-19
-21
-19
-19
-19
-19
-19
-20
-20
-18
-20
-18
-19
-20
-20
-21
-19
-22
-21
-20
-16
-20
-20
-18
-17
-20
-21
-19
-19
-18
-18
-21
-18
-20
-18
-18
-21
-17
-20
-19
-18
-19
-20
-21
-18
-21
-19
-18
-18
-20
-19
-20
-19
-20
-19
-22
-18
-18
-21
-16
-17
-18
-21
-18
-20
-21
-20
-19
-20
-21
-20
-19
-19
-20
-20
-21
-16
-19
-18
-20
-19
-21
-20
-18
-19
-20
-21
-21
-22
-18
-21
-20
-18
-21
-18
-16
-18
-21
-17
-16
-18
-22
-21
-16
-19
-19
-21
-20
-18
-24
-19
-16
-20
-21
-20
-19
-20
-19
-19
-18
-18
-19
-20
-19
-17
-19
-18
-21
-18
-20
-20
-21
-21
-19
-19
-21
-16
-18
-21
-19
-19
-19
-20
-21
-21
-22
-21
-21
-20
-20
-18
-21
-19
-21
-17
-20
-20
-20
-17
-20
-19
-16
-18
-21
-20
-19
-19
-21
-18
-21
-17
-18
-21
-20
-21
-19
-16
-19
-21
-18
-20
-18
-18
-19
-18
-19
-18
-18
-19
-19
-18
-20
-19
-18
-19
-20
-22
-18
-18
-18
-19
-20
-18
-19
-21
-18
-16
-18
-18
-19
-20
-19
-17
-21
-17
-20
-19
-20
-19
-18
-19
-18
-19
-18
-19
-17
-19
-18
-18
-18
-19
-18
-20
-19
-20
-17
-21
-16
-18
-21
-19
-19
-17
-19
-20
-19
-22
-18
-18
-18
-19
-21
-18
-17
-19
-20
-18
-19
-18
-20
-18
-21
-19
-18
-21
-18
-19
-20
-19
-17
-21
-18
-19
-20
-19
-16
-19
-21
-17
-19
-18
-19
-20
-20
-17
-19
-20
-19
-14
-20
-18
-18
-19
-18
-18
-19
-19
-20
-19
-20
-19
-19
-16
-18
-19
-18
-20
-19
-19
-18
-17
-19
-18
-18
-18
-17
-19
-21
-17
-21
-19
-16
-22
-18
-16
-19
-20
-18
-18
-18
-20
-19
-20
-20
-20
-19
-19
-19
-20
-22
-20
-17
-18
-19
-20
-18
-19
-18
-19
-18
-21
-19
-18
-20
-22
-18
-17
-18
-17
-20
-18
-19
-18
-19
-18
-20
-17
-17
-20
-20
-20
-19
-21
-18
-19
-17
-20
-19
-21
-17
-16
-19
-19
-18
-19
-16
-16
-18
-21
-15
-18
-19
-18
-18
-19
-19
-20
-16
-18
-19
-20
-19
-18
-19
-20
-19
-17
-20
-19
-20
-19
-16
-17
-18
-18
-19
-17
-19
-19
-19
-20
-18
-18
-20
-18
-19
-19
-17
-17
-17
-19
-18
-19
-17
-20
-16
-20
-17
-19
-18
-21
-19
-19
-18
-18
-17
-17
-18
-21
-18
-19
-18
-17
-16
-21
-18
-19
-17
-19
-18
-20
-19
-18
-19
-18
-19
-20
-17
-19
-20
-17
-19
-19
-18
-18
-20
-17
-20
-22
-17
-21
-18
-20
-18
-17
-18
-19
-20
-18
-19
-18
-18
-17
-19
-16
-21
-18
-17
-18
-18
-22
-20
-21
-18
-21
-16
-21
-18
-20
-19
-17
-21
-21
-20
-20
-20
-18
-18
-18
-19
-18
-19
-17
-20
-18
-17
-20
-16
-16
-19
-17
-21
-19
-18
-19
-20
-19
-16
-19
-19
-19
-19
-17
-20
-17
-20
-18
-18
-20
-18
-21
-16
-18
-20
-17
-19
-18
-19
-18
-16
-17
-18
-21
-18
-17
-21
-19
-20
-18
-21
-19
-19
-21
-19
-18
-16
-19
-22
-21
-21
-18
-19
-18
-18
-18
-18
-21
-17
-19
-17
-19
-19
-18
-18
-21
-19
-18
-17
-16
-17
-16
-18
-18
-19
-21
-18
-21
-18
-19
-20
-21
-19
-18
-16
-18
-21
-19
-19
-18
-20
-21
-19
-18
-19
-19
-16
-16
-16
-18
-18
-18
-20
-18
-19
-18
-18
-19
-19
-20
-18
-17
-20
-18
-20
-18
-18
-16
-19
-17
-16
-18
-18
-18
-16
-20
-18
-18
-17
-19
-16
-17
-17
-17
-19
-18
-19
-19
-19
-18
-18
-19
-17
-19
-19
-17
-18
-18
-21
-18
-18
-18
-18
-18
-19
-19
-18
-18
-19
-19
-19
-19
-21
-19
-20
-20
-21
-19
-18
-19
-20
-16
-20
-18
-20
-19
-19
-21
-18
-18
-20
-19
-19
-20
-21
-18
-17
-17
-18
-19
-19
-18
-17
-17
-19
-20
-16
-18
-18
-20
-17
-19
-16
-19
-17
-16
-18
-18
-16
-18
-16
-19
-18
-18
-16
-18
-16
-19
-20
-17
-18
-19
-19
-17
-19
-18
-19
-17
-17
-19
-19
-16
-19
-17
-18
-17
-16
-18
-17
-18
-20
-18
-20
-22
-19
-17
-18
-18
-18
-21
-17
-20
-18
-20
-18
-17
-16
-18
-20
-19
-19
-18
-17
-16
-18
-20
-18
-18
-18
-18
-19
-16
-18
-19
-19
-18
-18
-19
-18
-19
-21
-19
-16
-19
-19
-20
-17
-19
-16
-19
-19
-18
-19
-19
-17
-18
-17
-16
-16
-18
-18
-19
-18
-18
-18
-21
-16
-17
-20
-18
-18
-19
-20
-19
-20
-17
-21
-20
-20
-16
-19
-18
-19
-19
-20
-18
-19
-20
-18
-16
-19
-20
-18
-16
-19
-18
-20
-18
-18
-17
-16
-19
-19
-19
-18
-18
-18
-20
-19
-20
-19
-19
-18
-21
-17
-18
-18
-20
-16
-21
-18
-19
-19
-16
-20
-21
-19
-18
-17
-18
-20
-19
-19
-18
-21
-17
-19
-18
-18
-19
-19
-17
-18
-16
-20
-18
-17
-18
-20
-21
-18
-19
-19
-20
-18
-17
-17
-18
-18
-17
-18
-18
-19
-19
-19
-19
-21
-19
-17
-19
-17
-17
-19
-19
-17
-18
-19
-18
-17
-18
-19
-18
-18
-17
-20
-17
-19
-19
-19
-20
-17
-21
-18
-18
-19
-20
-19
-19
-21
-18
-20
-16
-21
-18
-19
-18
-17
-18
-17
-18
-18
-21
-18
-21
-16
-17
-16
-16
-17
-16
-18
-17
-19
-20
-21
-19
-16
-17
-18
-17
-19
-18
-19
-17
-17
-18
-18
-18
-17
-18
-19
-19
-18
-18
-19
-18
-20
-16
-18
-18
-19
-16
-22
-16
-19
-18
-17
-19
-19
-16
-18
-16
-20
-18
-17
-18
-21
-19
-18
-16
-21
-18
-18
-17
-19
-17
-16
-18
-15
-17
-19
-17
-20
-20
-18
-17
-19
-18
-21
-15
-19
-19
-18
-19
-17
-17
-21
-18
-20
-17
-20
-19
-18
-17
-17
-16
-19
-17
-20
-18
-19
-16
-19
-17
-16
-16
-19
-17
-19
-18
-21
-18
-21
-18
-18
-19
-18
-19
-18
-17
-18
-20
-19
-15
-18
-17
-18
-16
-19
-19
-17
-18
-20
-17
-17
-18
-16
-16
-21
-17
-20
-18
-21
-17
-18
-17
-15
-19
-20
-17
-19
-18
-19
-20
-17
-19
-17
-18
-18
-17
-20
-18
-18
-20
-18
-19
-15
-19
-17
-17
-17
-19
-21
-20
-18
-17
-17
-18
-17
-18
-20
-18
-18
-18
-18
-18
-19
-18
-19
-17
-21
-19
-17
-16
-19
-15
-17
-17
-16
-19
-17
-18
-18
-17
-17
-17
-19
-20
-18
-20
-18
-18
-17
-20
-18
-18
-18
-18
-16
-19
-18
-19
-16
-20
-18
-17
-19
-17
-16
-16
-18
-19
-18
-19
-20
-17
-17
-18
-16
-19
-21
-19
-16
-19
-19
-16
-16
-19
-19
-16
-16
-18
-20
-18
-19
-20
-16
-21
-19
-19
-18
-16
-16
-18
-19
-17
-16
-17
-17
-18
-17
-17
-19
-18
-17
-18
-16
-18
-18
-16
-16
-18
-21
-18
-20
-16
-18
-18
-17
-18
-21
-17
-16
-17
-17
-18
-18
-19
-17
-16
-19
-18
-16
-19
-16
-17
-18
-15
-17
-16
-18
-18
-19
-19
-19
-18
-16
-18
-19
-18
-18
-16
-17
-18
-18
-19
-19
-18
-17
-18
-17
-18
-20
-17
-17
-18
-20
-20
-17
-18
-17
-17
-19
-15
-18
-17
-17
-18
-18
-17
-17
-19
-17
-18
-18
-16
-15
-18
-19
-19
-18
-19
-19
-17
-18
-18
-17
-17
-18
-19
-18
-19
-17
-18
-19
-18
-19
-19
-17
-17
-19
-19
-16
-21
-20
-17
-17
-18
-17
-18
-18
-18
-16
-19
-15
-18
-17
-17
-16
-17
-18
-17
-19
-17
-19
-17
-18
-18
-17
-18
-19
-15
-17
-16
-18
-18
-19
-17
-18
-16
-18
-20
-17
-19
-17
-18
-21
-19
-17
-14
-17
-18
-19
-18
-17
-17
-16
-19
-18
-18
-17
-19
-17
-19
-18
-18
-17
-20
-17
-19
-16
-18
-15
-19
-19
-19
-17
-19
-17
-17
-16
-15
-17
-17
-19
-18
-18
-18
-17
-16
-18
-17
-16
-19
-18
-14
-18
-16
-17
-17
-15
-19
-17
-16
-18
-17
-19
-19
-20
-18
-17
-20
-18
-19
-18
-18
-17
-19
-17
-18
-16
-19
-17
-16
-17
-17
-16
-16
-18
-18
-21
-18
-18
-20
-18
-17
-18
-18
-20
-17
-18
-17
-17
-17
-17
-15
-15
-15
-19
-18
-21
-17
-15
-19
-15
-18
-17
-18
-16
-15
-17
-16
-17
-19
-19
-18
-16
-16
-17
-17
-16
-16
-19
-16
-19
-19
-17
-19
-16
-20
-17
-18
-17
-21
-18
-12
-16
-16
-19
-18
-17
-18
-18
-14
-17
-16
-15
-17
-17
-16
-19
-18
-16
-19
-16
-18
-16
-18
-19
-17
-17
-19
-18
-17
-18
-18
-16
-18
-17
-19
-18
-18
-18
-16
-16
-18
-16
-17
-17
-17
-18
-19
-18
-18
-17
-18
-18
-18
-15
-18
-18
-18
-17
-16
-17
-19
-19
-20
-17
-16
-16
-16
-17
-18
-19
-14
-18
-15
-16
-19
-18
-16
-18
-18
-18
-17
-16
-18
-17
-16
-17
-20
-17
-17
-19
-17
-20
-17
-18
-17
-18
-18
-17
-15
-16
-21
-19
-18
-18
-15
-18
-16
-17
-20
-18
-17
-18
-17
-15
-15
-18
-17
-16
-19
-19
-18
-16
-18
-16
-17
-18
-16
-18
-17
-17
-17
-17
-17
-14
-19
-18
-18
-17
-18
-15
-17
-18
-17
-19
-16
-17
-18
-19
-18
-19
-18
-20
-17
-16
-17
-18
-14
-19
-17
-15
-16
-18
-17
-17
-17
-17
-16
-16
-17
-19
-19
-16
-19
-16
-18
-16
-18
-17
-15
-17
-16
-19
-17
-16
-16
-18
-17
-15
-16
-17
-21
-16
-18
-17
-17
-17
-18
-17
-19
-20
-19
-18
-16
-18
-18
-18
-17
-18
-16
-19
-17
-17
-19
-17
-17
-16
-19
-19
-17
-16
-17
-17
-18
-17
-16
-19
-16
-17
-16
-15
-16
-17
-17
-16
-19
-21
-18
-18
-18
-17
-17
-19
-17
-17
-18
-18
-17
-17
-16
-16
-16
-15
-17
-19
-15
-18
-18
-17
-15
-19
-16
-17
-18
-18
-16
-17
-18
-17
-17
-16
-19
-18
-16
-17
-16
-17
-14
-18
-15
-16
-17
-18
-16
-16
-16
-18
-19
-16
-19
-16
-16
-16
-18
-16
-19
-16
-17
-19
-17
-16
-19
-19
-19
-16
-16
-16
-17
-19
-17
-17
-17
-17
-18
-19
-14
-16
-16
-17
-18
-17
-16
-18
-17
-17
-19
-16
-16
-16
-16
-18
-16
-18
-15
-16
-18
-17
-18
-16
-17
-17
-16
-20
-16
-17
-18
-19
-17
-18
-18
-17
-16
-16
-19
-16
-18
-19
-17
-17
-15
-18
-18
-18
-18
-16
-19
-18
-18
-18
-17
-17
-19
-16
-17
-17
-17
-18
-17
-16
-17
-17
-16
-16
-19
-19
-15
-16
-15
-16
-20
-15
-17
-17
-16
-17
-18
-20
-18
-17
-18
-17
-18
-16
-18
-21
-18
-14
-21
-17
-17
-14
-18
-18
-16
-18
-16
-18
-16
-17
-18
-18
-18
-16
-16
-17
-21
-19
-17
-16
-19
-18
-14
-16
-19
-18
-16
-16
-16
-16
-16
-16
-14
-15
-16
-16
-16
-17
-18
-19
-16
-18
-19
-17
-16
-16
-19
-15
-16
-15
-16
-17
-16
-17
-17
-14
1
40
85
119
158
200
236
268
304
334
366
397
427
454
482
499
513
514
511
499
496
508
537
580
630
679
720
758
783
809
830
849
870
883
897
914
926
940
957
969
983
994
1001
1014
1026
1032
1046
1053
1059
1069
1078
1086
1093
1097
1107
1113
1120
1126
1130
1139
1140
1145
1152
1151
1158
1162
1164
1166
1165
1170
1168
1167
1172
1169
1172
1170
1170
1177
1175
1175
1178
1179
1180
1184
1185
1186
1188
1192
1191
1191
1195
1197
1201
1201
1210
1209
1213
1211
1207
1201
1198
1195
1191
1188
1185
1181
1173
1167
1160
1153
1151
1147
1141
1138
1134
1123
1120
1111
1106
1108
1101
1099
1095
1090
1078
1073
1066
1055
1048
1043
1030
1028
1018
1013
1006
1000
991
983
975
970
959
947
940
930
920
914
905
897
889
876
870
863
853
844
835
826
818
812
801
793
784
779
768
761
752
744
738
729
719
712
705
699
692
685
676
669
664
655
644
638
629
621
611
599
592
580
571
567
560
554
551
541
535
526
519
508
502
492
483
473
468
462
455
445
436
427
421
414
409
401
394
375
353
316
275
239
215
210
224
244
269
287
300
308
307
303
297
289
282
273
265
261
252
244
237
229
224
216
210
199
195
187
180
174
168
160
153
147
138
130
122
116
112
103
100
93
92
86
80
71
66
61
60
52
49
43
42
33
26
16
10
-1
-5
-13
-22
-25
-28
-38
-43
-45
-53
-51
-52
-54
-52
-56
-53
-50
-48
-48
-46
-44
-43
-45
-45
-47
-49
-50
-54
-56
-56
-63
-67
-66
-69
-71
-75
-83
-84
-88
-94
-96
-99
-107
-112
-120
-122
-125
-133
-137
-141
-142
-147
-150
-156
-164
-165
-168
-168
-173
-174
-177
-175
-180
-175
-182
-180
-184
-189
-194
-196
-199
-203
-205
-208
-210
-211
-216
-218
-217
-220
-215
-218
-217
-218
-219
-223
-224
-224
-225
-227
-229
-231
-231
-238
-237
-240
-239
-240
-242
-236
-236
-236
-236
-240
-238
-238
-241
-241
-249
-248
-252
-252
-250
-250
-246
-245
-243
-242
-248
-244
-243
-243
-246
-263
-284
-306
-343
-375
-394
-391
-374
-344
-314
-284
-263
-251
-240
-238
-237
-233
-235
-233
-231
-233
-228
-231
-229
-231
-232
-230
-233
-231
-238
-241
-241
-245
-242
-245
-246
-246
-248
-243
-242
-246
-242
-244
-245
-250
-248
-253
-249
-239
-243
-243
-245
-247
-244
-253
-255
-256
-264
-263
-269
-268
-267
-265
-266
-264
-269
-267
-261
-260
-255
-244
-241
-234
-229
-222
-218
-219
-209
-204
-201
-195
-194
-196
-196
-193
-197
-197
-191
-196
-201
-203
-205
-208
-207
-211
-215
-213
-212
-216
-217
-214
-220
-217
-221
-220
-222
-226
-224
-229
-229
-223
-227
-224
-224
-221
-217
-214
-214
-217
-217
-213
-209
-212
-212
-210
-208
-208
-202
-204
-203
-200
-207
-210
-210
-207
-201
-201
-198
-197
-197
-201
-202
-195
-198
-203
-195
-195
-195
-195
-194
-188
-184
-173
-173
-171
-167
-170
-164
-168
-170
-171
-178
-176
-181
-183
-181
-180
-182
-177
-181
-177
-175
-176
-171
-177
-184
-203
-228
-258
-296
-312
-314
-300
-269
-235
-209
-185
-174
-162
-152
-151
-141
-137
-131
-133
-122
-119
-114
-107
-108
-108
-108
-112
-110
-109
-113
-109
-117
-113
-119
-120
-120
-125
-127
-132
-135
-137
-140
-135
-141
-138
-138
-142
-146
-148
-151
-150
-151
-148
-146
-149
-147
-148
-149
-149
-155
-156
-157
-158
-156
-161
-154
-155
-151
-152
-156
-154
-149
-143
-136
-135
-126
-118
-110
-101
-102
-95
-82
-83
-75
-72
-70
-68
-64
-65
-59
-58
-62
-58
-61
-60
-56
-57
-56
-62
-65
-66
-68
-69
-71
-70
-72
-74
-70
-70
-64
-69
-61
-62
-63
-61
-60
-55
-50
-43
-35
-30
-26
-22
-24
-24
-27
-26
-26
-25
-33
-43
-49
-57
-60
-62
-69
-67
-64
-71
-78
-76
-79
-86
-89
-93
-96
-96
-94
-93
-94
-87
-84
-84
-85
-83
-87
-83
-82
-83
-77
-72
-72
-64
-56
-44
-34
-29
-30
-31
-34
-31
-27
-27
-37
-54
-76
-108
-145
-173
-172
-154
-125
-87
-52
-32
-19
-11
-9
-10
-6
-7
-5
-2
-5
-7
-8
-2
-4
-6
-16
-16
-11
-9
-7
-10
-14
-14
-10
-10
-10
-11
-16
-16
-14
-14
-9
-8
-17
-29
-35
-39
-39
-42
-44
-43
-47
-47
-50
-56
-62
-63
-65
-69
-69
-68
-69
-67
-68
-69
-67
-66
-59
-57
-59
-64
-64
-60
-62
-59
-58
-53
-44
-48
-47
-47
-45
-47
-47
-45
-44
-34
-36
-42
-52
-55
-56
-57
-55
-58
-60
-65
-63
-64
-61
-58
-57
-61
-58
-58
-60
-65
-60
-60
-59
-62
-61
-66
-61
-61
-60
-54
-58
-62
-67
-66
-62
-65
-63
-64
-65
-65
-65
-65
-73
-75
-80
-81
-81
-80
-81
-83
-85
-87
-87
-94
-90
-92
-95
-99
-98
-96
-89
-89
-84
-77
-72
-66
-69
-67
-70
-70
-69
-64
-59
-57
-51
-57
-53
-57
-55
-61
-57
-62
-60
-57
-47
-45
-54
-78
-106
-136
-158
-171
-167
-136
-105
-65
-37
-5
13
29
28
18
13
6
0
-2
-2
-10
-14
-19
-16
-16
-20
-27
-31
-30
-25
-15
-21
-28
-33
-31
-31
-20
-7
2
10
4
-1
-9
-10
-17
-28
-28
-25
-19
-34
-43
-46
-40
-44
-40
-38
-41
-46
-45
-35
-40
-44
-50
-59
-63
-68
-75
-77
-76
-78
-74
-63
-53
-56
-62
-60
-55
-46
-44
-42
-42
-47
-42
-46
-52
-52
-33
-12
-10
-26
-42
-46
-50
-42
-36
-27
-19
-11
-8
-9
-11
-11
-12
-12
-4
-3
2
3
-1
-2
-3
-4
4
11
13
12
21
25
28
35
38
42
41
43
43
40
36
41
45
42
39
39
38
40
46
44
36
29
27
19
16
6
-6
-8
-9
-11
-7
-1
4
4
-3
-7
-10
-4
-7
-14
-8
-9
-12
-19
-31
-33
-48
-61
-74
-85
-89
-89
-88
-80
-79
-90
-106
-129
-167
-202
-217
-218
-198
-166
-128
-103
-66
-40
-22
-6
4
8
9
-5
-5
-13
-21
-25
-32
-36
-39
-39
-37
-41
-44
-46
-49
-52
-53
-53
-47
-51
-45
-44
-44
-41
-42
-39
-34
-37
-34
-37
-36
-32
-38
-35
-40
-41
-44
-48
-49
-49
-51
-52
-52
-52
-53
-47
-49
-49
-44
-42
-44
-47
-44
-43
-42
-40
-38
-41
-33
-29
-22
-16
-14
-9
-5
4
12
14
18
18
28
25
32
32
36
34
38
35
41
44
44
46
47
52
55
58
55
52
47
50
43
45
41
45
46
46
48
64
71
72
84
93
108
114
116
123
123
119
113
114
112
110
110
102
98
93
93
90
93
86
80
75
72
70
69
64
58
52
50
49
43
47
43
48
44
45
42
39
36
35
34
32
28
28
26
27
23
25
22
22
0
-11
-11
-4
5
6
-2
-22
-40
-74
-112
-128
-137
-124
-99
-63
-36
-17
-5
4
14
14
14
11
14
9
3
-1
1
-4
-1
-8
-5
-6
-9
-9
-13
-8
-14
-12
-17
-21
-19
-20
-20
-25
-28
-27
-30
-27
-28
-33
-38
-38
-40
-46
-47
-50
-53
-55
-50
-49
-42
-44
-44
-46
-40
-41
-44
-49
-46
-44
-44
-45
-40
-41
-40
-42
-36
-43
-41
-38
-29
-29
-26
-28
-23
-23
-13
-15
-17
-14
-13
-10
-13
-10
-17
-14
-12
-7
-7
-7
-10
-7
-8
-7
-17
-20
-22
-17
-22
-26
-32
-17
-15
-18
-28
-34
-30
-18
0
10
6
1
-1
-2
1
12
19
26
26
28
23
23
20
19
19
16
12
14
11
5
5
4
-1
-3
-7
-4
-7
-2
-9
-14
-13
-12
-16
-20
-23
-26
-28
-36
-41
-46
-43
-39
-42
-33
-30
-32
-30
-29
-28
-30
-29
-27
-29
-30
-30
-25
-25
-28
-23
-20
-25
-25
-25
-23
-21
-17
-17
-20
-29
-49
-72
-106
-136
-154
-156
-137
-104
-70
-39
-24
-16
-14
-17
-18
-18
-19
-20
-15
-17
-16
-19
-19
-16
-16
-19
-22
-22
-24
-20
-17
-16
-22
-17
-10
-14
-18
-22
-29
-25
-26
-24
-27
-23
-23
-24
-20
-24
-26
-23
-24
-26
-27
-30
-30
-33
-30
-32
-34
-36
-37
-38
-38
-35
-34
-35
-36
-35
-33
-29
-26
-23
-23
-14
-12
-9
-5
-7
3
3
6
10
10
12
14
14
12
10
14
11
13
11
16
13
13
12
12
14
11
16
12
15
12
13
9
7
9
7
13
12
14
11
13
13
10
10
8
10
12
16
16
14
15
13
15
15
15
15
15
13
-2
-21
-49
-80
-114
-131
-131
-113
-82
-49
-17
-1
14
22
26
23
24
19
20
19
18
19
19
17
18
14
16
12
11
12
13
8
9
7
4
8
4
6
-1
1
3
-5
5
5
3
3
2
2
0
-3
-4
-17
-12
-17
-16
-19
-18
-21
-22
-24
-27
-26
-29
-24
-27
-18
-21
-15
-11
-5
-1
2
6
9
9
10
8
15
18
19
22
24
24
23
23
23
22
24
23
19
18
17
16
16
14
18
12
12
11
12
10
13
12
12
12
11
10
12
13
13
11
16
13
17
14
15
15
19
18
20
20
20
17
15
16
15
17
13
17
19
17
15
18
19
15
16
18
18
16
18
17
17
16
19
19
17
15
15
16
19
19
17
21
15
20
15
19
22
19
22
16
18
16
12
11
8
10
5
8
5
5
5
3
-3
-6
-9
-10
-9
-12
-10
-13
-15
-19
-16
-19
-15
-16
-14
-16
-15
-17
-17
-12
-14
-11
-15
-18
-18
-18
-18
-17
-17
-17
-14
-15
-10
-10
-9
-19
-34
-63
-95
-130
-150
-159
-146
-123
-93
-65
-40
-26
-17
-9
-5
-1
5
7
11
9
4
3
5
8
7
8
9
5
5
8
9
4
-1
1
4
2
-2
-1
-1
-4
-10
-13
-12
-11
-15
-16
-17
-18
-13
-10
-9
-16
-16
-18
-25
-29
-31
-39
-42
-45
-45
-41
-39
-41
-41
-43
-42
-43
-41
-37
-34
-29
-25
-19
-15
-6
-6
-4
-2
4
6
6
6
7
8
8
12
11
11
10
14
14
13
10
6
5
8
7
3
4
2
4
2
1
0
1
2
1
-4
-2
0
2
3
-1
5
4
6
8
5
7
2
3
6
7
13
11
7
3
6
4
3
2
3
3
6
4
6
1
5
4
-2
-1
-4
-2
-4
-9
-12
-13
-14
-17
-20
-19
-18
-17
-17
-17
-16
-15
-13
-11
-11
-16
-15
-13
-12
-15
-14
-15
-16
-17
-16
-20
-17
-19
-17
-15
-16
-25
-42
-64
-91
-121
-148
-156
-148
-127
-97
-66
-42
-31
-21
-18
-15
-15
-11
-5
-6
-7
-12
-7
-11
-8
-10
-9
-9
-9
-12
-19
-17
-18
-17
-17
-17
-20
-20
-20
-18
-17
-19
-24
-24
-25
-22
-24
-25
-25
-25
-26
-28
-31
-33
-33
-33
-34
-33
-35
-36
-37
-36
-36
-37
-36
-37
-34
-36
-30
-28
-23
-21
-12
-6
3
3
12
15
19
26
32
30
34
37
38
40
40
35
36
29
28
23
22
20
20
19
18
17
18
20
21
20
20
23
23
26
26
24
24
29
27
29
32
31
32
29
28
20
24
26
29
31
30
33
31
25
26
27
26
25
23
19
14
8
11
11
11
16
15
9
2
-1
5
8
14
11
12
10
11
12
15
19
19
19
24
22
15
11
3
-2
-4
-5
-4
-9
-3
-3
-7
-6
-1
4
-5
-10
-22
-47
-76
-111
-139
-155
-148
-122
-91
-52
-30
-11
2
13
20
15
14
15
12
10
7
9
6
4
4
1
-1
-3
-2
-4
-3
-6
-4
-9
-13
-17
-15
-17
-24
-26
-23
-30
-29
-32
-37
-39
-37
-40
-40
-43
-43
-45
-40
-36
-39
-42
-40
-41
-41
-41
-41
-43
-42
-41
-36
-36
-37
-37
-34
-32
-25
-13
-2
13
20
16
19
20
20
23
34
46
48
54
56
59
63
68
69
70
70
72
71
70
69
69
67
68
64
62
61
65
58
54
52
55
54
53
58
63
64
66
63
66
66
59
57
59
56
51
54
55
52
51
46
39
35
35
37
36
35
32
24
7
-14
-15
-8
-7
-21
-42
-58
-66
-71
-72
-65
-55
-50
-53
-55
-53
-47
-42
-33
-26
-20
-20
-16
-16
-10
-12
-18
-20
-16
-14
-12
-15
-17
-21
-35
-60
-93
-124
-151
-166
-158
-141
-108
-81
-54
-36
-26
-21
-16
-12
-8
-10
-10
-14
-19
-14
-14
-15
-17
-19
-18
-20
-23
-22
-22
-23
-28
-26
-24
-26
-30
-31
-35
-36
-38
-34
-41
-40
-41
-47
-46
-45
-49
-51
-52
-53
-59
-61
-62
-64
-65
-66
-66
-65
-68
-67
-64
-61
-60
-60
-60
-63
-59
-54
-46
-42
-38
-35
-32
-25
-20
-16
-13
-12
-13
-11
-5
-3
-3
-2
-1
1
4
-1
-6
0
-6
-4
-5
-4
-5
-1
-3
-7
-5
-9
-9
-8
-12
-14
-14
-15
-10
-9
-10
-9
-11
-9
-12
-10
-13
-17
-15
-17
-17
-14
-16
-17
-17
-24
-24
-27
-26
-20
-18
-18
-12
-14
-11
-10
-8
-9
-11
-12
-10
-13
-9
-1
4
4
8
11
15
17
17
17
18
18
16
15
13
17
17
21
18
19
22
20
17
22
8
-6
-30
-64
-98
-123
-122
-111
-89
-60
-33
-18
-4
5
17
24
32
33
30
30
27
29
25
27
29
28
29
29
32
31
33
30
32
32
26
28
29
25
24
24
22
18
15
16
17
15
16
11
7
5
-1
1
2
-2
-7
-7
-8
-7
-10
-15
-12
-21
-17
-20
-23
-20
-18
-18
-15
-11
-9
-7
-3
0
7
10
12
15
14
18
19
17
21
22
20
16
14
10
11
9
8
10
8
9
10
4
3
-1
-1
-2
-2
-1
0
1
3
3
3
3
2
3
-2
-3
0
3
2
3
5
7
7
4
5
7
8
8
8
8
7
6
7
10
5
3
4
10
18
23
17
15
18
23
24
19
19
13
11
16
18
22
31
32
32
26
23
22
19
24
32
33
32
27
21
17
22
22
20
17
22
28
36
33
23
13
-1
-14
-38
-55
-79
-101
-90
-64
-25
15
23
29
25
20
12
5
12
14
13
12
14
16
21
29
38
38
36
35
32
27
23
23
23
25
22
19
24
31
35
31
27
13
-1
-13
-11
-13
-6
2
-5
-6
-5
-4
-13
-31
-37
-37
-30
-32
-35
-39
-38
-37
-34
-36
-37
-32
-32
-33
-37
-36
-34
-31
-30
-34
-33
-30
-30
-27
-28
-33
-32
-34
-40
-46
-52
-51
-52
-55
-50
-47
-48
-51
-47
-50
-47
-48
-48
-45
-45
-45
-45
-46
-49
-55
-48
-51
-52
-51
-45
-42
-42
-42
-43
-38
-41
-41
-40
-39
-39
-39
-40
-40
-40
-43
-40
-36
-32
-33
-33
-34
-38
-43
-42
-39
-36
-35
-36
-40
-39
-39
-36
-39
-36
-38
-36
-39
-36
-38
-39
-45
-45
-49
-49
-50
-49
-43
-40
-37
-34
-34
-33
-34
-39
-42
-41
-34
-37
-38
-34
-30
-35
-34
-34
-31
-31
-23
-18
-18
-26
-41
-64
-96
-126
-144
-146
-129
-98
-65
-42
-20
-7
3
6
6
7
10
10
11
16
17
14
14
14
14
13
16
18
17
14
14
12
13
11
12
14
13
14
12
12
6
6
4
3
1
2
-1
0
-5
-6
-7
-6
-7
-8
-10
-10
-11
-12
-13
-8
-5
-4
-5
-7
-8
-4
-2
2
-7
0
5
9
7
11
18
20
19
20
17
19
26
26
26
24
26
30
31
30
30
29
25
27
26
22
22
19
25
23
17
20
22
24
23
20
21
24
23
25
23
23
29
28
31
28
33
30
29
25
27
28
22
23
19
22
19
26
24
25
22
21
24
25
23
20
22
22
22
20
16
19
22
22
20
18
20
18
14
16
16
17
14
13
13
13
12
10
8
6
3
-1
2
2
3
-2
0
2
6
6
4
4
5
3
5
10
6
6
1
-2
-3
1
3
0
2
4
9
15
14
19
9
-2
-25
-58
-92
-125
-134
-130
-108
-84
-59
-35
-13
-4
7
16
20
27
35
40
39
40
36
30
31
25
18
20
12
8
5
0
2
0
-4
-5
-2
-4
-7
-13
-13
-16
-19
-23
-25
-25
-27
-28
-30
-29
-28
-31
-35
-36
-35
-35
-39
-39
-39
-41
-40
-43
-42
-41
-36
-39
-37
-39
-37
-39
-32
-32
-28
-29
-20
-22
-16
-13
-10
-7
-7
-2
-2
-1
4
5
7
6
6
4
5
3
5
2
4
4
2
-1
-2
1
3
0
-1
0
-1
-2
-5
-2
-2
1
-3
-2
-1
1
-2
-1
2
4
0
-3
0
-3
-4
-3
1
-1
2
0
-1
-3
-1
-5
-5
-5
-4
-2
-8
-6
-4
-8
-8
-8
-12
-14
-12
-8
-9
-6
-5
-1
4
8
7
7
8
8
9
11
7
9
9
9
9
6
6
4
4
2
1
-5
-2
-4
-1
0
2
6
8
5
2
1
-1
-2
1
2
-1
-1
-2
-2
-3
-2
-1
-4
-5
0
0
2
-7
-25
-51
-89
-128
-153
-168
-160
-136
-105
-69
-44
-28
-12
-3
5
6
10
11
15
17
15
14
12
11
11
11
15
15
20
22
21
24
23
23
25
28
27
29
29
28
28
25
20
19
15
10
7
-3
-2
-2
-10
-8
-10
-8
-9
-13
-15
-21
-20
-22
-26
-25
-29
-34
-35
-35
-36
-35
-32
-31
-28
-26
-21
-15
-12
-11
-9
-9
-6
-6
-5
-4
-4
-5
-8
-5
-3
-4
-3
1
2
3
0
-3
-6
-7
-9
-8
-8
-5
-1
-2
-1
-1
-5
-4
-8
-6
-5
-6
-4
-10
-11
-11
-10
-10
-12
-10
-10
-4
-6
-2
-4
-10
-9
-14
-14
-10
-11
-8
-6
-8
-8
-4
-5
-3
-3
-4
-3
-4
-9
-8
-13
-15
-17
-17
-21
-20
-25
-22
-23
-22
-22
-17
-18
-20
-19
-21
-18
-16
-14
-17
-13
-17
-10
-16
-19
-20
-21
-23
-20
-21
-24
-22
-21
-16
-15
-18
-14
-18
-17
-16
-19
-20
-17
-16
-15
-16
-14
-18
-15
-16
-20
-20
-22
-18
-18
-16
-21
-34
-58
-93
-133
-160
-177
-166
-144
-112
-83
-52
-30
-18
-9
4
7
9
12
11
12
13
19
22
20
17
15
14
8
6
3
-2
-3
0
-5
-4
-6
-8
-9
-5
-8
-10
-6
-10
-13
-16
-15
-15
-18
-20
-23
-24
-21
-25
-31
-24
-26
-29
-32
-33
-29
-33
-32
-30
-28
-35
-32
-31
-32
-27
-24
-21
-16
-9
-10
-9
-4
1
3
6
10
14
18
21
22
24
23
25
23
20
19
19
19
18
14
12
7
8
7
9
8
6
12
8
11
14
16
12
8
4
4
7
2
-8
-24
-32
-40
-45
-43
-29
-16
-4
6
11
10
14
13
12
10
7
10
10
12
12
14
11
15
11
13
14
16
16
11
11
12
12
13
12
9
6
8
6
1
-8
-26
-39
-44
-46
-48
-50
-49
-45
-42
-38
-34
-34
-34
-29
-34
-30
-23
-26
-22
-17
-13
-13
-8
-6
-5
-5
0
-2
-2
3
6
6
8
7
7
7
10
8
9
14
15
16
9
-11
-38
-74
-104
-126
-140
-127
-96
-62
-29
-5
13
22
28
37
33
38
39
36
35
35
35
36
35
34
31
34
31
31
27
26
29
28
27
24
22
22
20
23
20
18
17
12
7
5
6
8
3
4
2
-9
-7
-5
-4
0
-5
-9
-11
-11
-17
-18
-21
-24
-27
-26
-28
-26
-26
-24
-23
-19
-18
-12
-10
-7
-6
0
5
3
9
10
14
15
16
11
15
16
13
14
15
12
13
11
8
12
12
11
15
14
15
14
11
11
14
13
10
9
10
14
11
12
14
13
15
14
12
15
15
17
19
13
18
16
12
10
12
8
3
3
3
6
4
-1
-1
-1
-1
0
-3
-3
5
4
-1
0
2
0
3
3
-1
2
4
-1
1
0
1
4
3
1
3
2
2
-2
-1
2
2
4
4
4
4
7
7
10
12
14
9
11
12
7
8
7
4
1
-1
-2
-5
-2
-4
-8
-10
-9
-9
-2
-2
-5
-6
-26
-53
-86
-113
-142
-145
-134
-107
-75
-46
-25
-11
-3
7
12
12
12
13
16
16
18
17
17
17
14
14
13
17
12
9
10
9
6
4
2
1
0
0
-2
0
-4
-3
-3
-5
-6
-7
-4
-4
-8
-9
-13
-12
-12
-17
-15
-17
-17
-18
-16
-20
-20
-21
-18
-20
-18
-17
-18
-16
-15
-13
-11
-8
-4
-5
4
7
9
13
15
15
17
24
24
22
23
25
25
28
27
26
23
24
19
22
20
18
15
16
14
18
13
15
15
15
12
11
13
7
11
9
12
6
11
4
5
6
2
8
7
8
4
2
5
2
-1
6
10
18
16
21
19
15
9
7
8
6
4
3
1
6
11
13
13
13
17
16
9
3
-5
-11
-13
-15
-17
-16
-16
-17
-22
-21
-20
-21
-17
-16
-17
-13
-13
-12
-8
-8
-6
-8
-8
-7
-9
-8
-6
-5
-9
-13
-11
-11
-6
-8
-4
-3
-2
-3
-23
-43
-71
-112
-143
-158
-157
-130
-95
-61
-37
-21
-6
-3
0
1
-1
-1
11
17
26
29
36
40
41
47
49
46
44
40
38
35
31
29
24
21
21
20
18
20
18
14
15
11
7
3
-4
-4
-9
-9
-12
-12
-16
-20
-22
-24
-28
-30
-31
-35
-34
-34
-37
-36
-39
-40
-43
-44
-41
-46
-42
-44
-47
-53
-52
-49
-47
-44
-39
-35
-34
-32
-34
-31
-34
-31
-34
-31
-34
-29
-33
-31
-29
-26
-26
-28
-30
-26
-26
-29
-27
-30
-28
-26
-25
-29
-25
-22
-23
-22
-20
-25
-24
-22
-18
-23
-19
-18
-17
-18
-18
-18
-17
-17
-15
-14
-13
-13
-13
-13
-12
-15
-10
-12
-13
-12
-16
-16
-17
-18
-19
-19
-20
-17
-18
-18
-16
-19
-17
-17
-17
-17
-16
-20
-19
-18
-21
-22
-19
-18
-17
-12
-17
-15
-14
-15
-13
-15
-15
-14
-12
-11
-13
-14
-20
-17
-18
-21
-17
-15
-13
-10
-8
-9
-3
-3
0
3
3
6
6
7
8
7
7
8
1
2
0
-1
2
3
5
4
-3
-20
-45
-81
-116
-143
-148
-133
-104
-66
-35
-14
2
15
17
24
22
21
21
25
23
26
24
27
26
24
23
23
26
24
22
15
20
19
18
14
14
12
10
10
8
3
5
6
3
-5
-9
-7
-10
-12
-17
-18
-18
-20
-21
-22
-27
-29
-32
-29
-31
-30
-31
-33
-30
-33
-31
-32
-30
-27
-28
-22
-17
-14
-11
-8
-5
2
3
3
6
9
14
14
12
12
16
17
14
20
17
13
16
15
15
14
15
14
15
15
15
16
17
14
17
14
11
13
12
18
15
12
12
13
7
10
10
9
13
11
14
12
11
11
12
12
12
13
14
15
17
12
13
16
12
13
11
13
13
15
13
10
7
7
8
11
11
12
16
19
17
16
17
21
23
27
25
26
26
26
27
25
22
23
20
21
20
17
12
11
11
8
8
3
0
0
-3
1
-3
-6
-6
-11
-9
-8
-8
-17
-19
-16
-17
-16
-17
-14
-17
-15
-18
-17
-15
-14
-15
-17
-20
-20
-20
-15
-16
-16
-18
-22
-19
-21
-18
-20
-15
-10
-12
-21
-37
-62
-98
-134
-157
-167
-157
-130
-97
-61
-40
-21
-7
-2
3
5
3
2
5
2
2
-3
-7
-4
-6
-10
-12
-14
-10
-14
-12
-10
-11
-12
-14
-17
-15
-17
-21
-24
-24
-29
-24
-20
-25
-25
-27
-26
-28
-33
-34
-37
-38
-41
-45
-49
-49
-50
-50
-51
-52
-52
-49
-52
-51
-49
-46
-45
-43
-41
-36
-34
-35
-25
-21
-14
-13
-11
-5
0
0
3
3
5
7
7
8
7
10
7
7
7
7
7
3
6
4
6
3
2
3
0
0
-2
4
4
4
4
4
8
10
10
6
3
4
4
1
6
5
7
12
11
10
14
7
6
7
7
4
-2
2
3
5
3
3
8
3
6
3
7
5
6
2
2
-2
2
-3
-1
3
4
2
3
4
2
-5
-4
-2
-4
-4
-8
-6
-7
-10
-13
-13
-12
-12
-10
-13
-9
-12
-10
-8
-9
-9
-5
-6
-3
-4
-7
-7
-6
-6
-8
-9
-9
-9
-8
-4
-9
-6
-6
0
1
-10
-24
-49
-80
-118
-145
-157
-144
-116
-84
-56
-28
-7
8
8
10
17
16
17
20
20
21
22
23
19
15
18
15
19
20
16
15
14
8
1
-3
-3
-7
-11
-12
-12
-16
-17
-14
-15
-17
-19
-18
-24
-25
-25
-31
-33
-34
-36
-40
-38
-42
-41
-43
-44
-46
-45
-45
-45
-42
-41
-36
-35
-32
-26
-21
-20
-15
-8
-4
1
8
13
16
15
19
22
26
24
28
26
25
25
23
21
20
20
19
19
24
22
21
19
16
12
7
5
8
11
7
7
10
7
9
11
12
12
9
10
12
12
12
16
16
13
10
9
10
13
20
15
11
12
8
6
6
10
6
5
3
4
10
6
10
8
11
10
12
10
10
13
15
17
16
11
11
10
11
12
12
8
11
12
9
10
7
5
7
8
-1
-5
-2
-7
-4
-8
-6
-8
-5
-3
-2
0
1
8
9
7
6
5
4
5
10
9
6
8
12
9
5
7
5
7
7
7
4
-9
-31
-56
-97
-134
-157
-152
-137
-104
-65
-37
-14
2
16
20
24
28
28
29
28
29
28
30
30
26
27
24
21
16
17
19
18
17
19
15
15
12
9
10
10
9
5
6
3
6
3
1
1
-8
-9
-6
-10
-14
-13
-16
-19
-22
-25
-25
-25
-26
-27
-33
-29
-30
-30
-31
-30
-31
-31
-26
-21
-16
-10
-3
7
13
19
28
30
33
40
40
40
41
39
39
38
37
40
38
41
34
36
35
33
29
32
30
27
28
22
23
21
20
17
13
11
9
9
11
9
4
3
-1
-1
-2
-2
-4
-6
-3
-2
-3
1
1
2
0
-4
-10
-6
-6
-4
-4
-6
-6
-5
-9
-10
-10
-6
-9
-7
-9
-12
-17
-18
-15
-17
-19
-18
-19
-15
-19
-17
-14
-12
-6
-6
-9
-4
-5
-6
-8
-10
-13
-13
-16
-14
-13
-11
-4
5
9
8
11
12
12
11
10
7
3
0
-1
-3
-7
-8
-10
-17
-20
-20
-25
-26
-28
-29
-25
-27
-31
-38
-45
-53
-56
-57
-59
-58
-56
-54
-56
-56
-53
-57
-53
-49
-49
-50
-43
-41
-39
-47
-68
-97
-132
-171
-199
-202
-186
-152
-114
-80
-57
-38
-20
-12
-5
-2
-4
-2
-5
-1
1
2
4
1
-7
-4
2
-1
-1
0
4
6
1
0
-6
-7
-6
-9
-11
-16
-13
-13
-15
-13
-16
-13
-16
-21
-21
-20
-24
-24
-26
-25
-27
-20
-22
-31
-30
-35
-40
-41
-40
-41
-37
-34
-32
-23
-18
-11
-7
-3
-1
3
7
14
13
20
26
27
26
24
25
28
30
25
26
27
27
27
29
29
27
28
30
23
20
22
17
14
10
9
13
8
7
6
5
8
7
8
14
18
18
15
15
20
19
19
26
25
26
27
27
31
34
36
34
34
32
33
34
31
25
29
24
24
23
27
26
28
26
26
31
26
24
23
16
9
13
14
9
16
17
14
8
3
4
1
-6
-9
-3
-6
-6
-4
-11
-14
-15
-15
-16
-20
-26
-25
-27
-27
-24
-24
-26
-30
-31
-23
-25
-14
-12
-4
-11
-16
-19
-24
-30
-29
-29
-30
-26
-20
-22
-20
-21
-19
-30
-45
-75
-106
-140
-160
-163
-148
-119
-85
-61
-37
-21
-12
-4
2
-2
6
3
2
8
6
1
2
0
-5
-5
-2
-2
-5
2
3
0
7
9
7
5
8
5
2
1
0
-5
-4
-8
-13
-13
-16
-18
-20
-20
-22
-25
-24
-29
-31
-34
-35
-34
-33
-35
-34
-36
-36
-39
-39
-37
-40
-36
-36
-33
-26
-23
-18
-13
-7
-1
6
6
8
8
8
10
12
13
16
18
14
11
13
10
10
11
7
11
10
14
7
5
8
5
3
1
1
2
1
-3
-2
3
2
-1
-6
-4
-4
-4
-2
-5
0
-3
0
2
3
5
1
1
-1
1
5
3
6
7
6
3
5
7
6
7
7
6
8
5
5
5
8
6
5
5
3
3
4
2
5
-1
3
5
3
1
3
4
7
8
6
6
2
3
1
-3
-3
-5
-4
-9
-8
-8
-8
-12
-14
-14
-14
-13
-11
-10
-10
-8
-4
-5
-9
-9
-11
-9
-9
-12
-13
-10
-7
-5
-7
-4
-3
-4
2
1
4
4
-5
-23
-54
-88
-125
-154
-163
-152
-129
-96
-66
-44
-25
-8
3
12
16
22
21
24
24
24
24
23
23
24
22
20
22
20
17
18
18
15
11
15
11
12
9
6
6
11
8
7
6
7
-1
-1
-7
-7
-12
-16
-17
-17
-21
-24
-29
-34
-37
-42
-44
-48
-45
-48
-49
-43
-45
-40
-36
-37
-33
-26
-21
-16
-17
-11
-7
-7
-2
5
11
13
15
13
15
18
18
16
15
11
13
16
17
19
17
20
15
14
12
14
9
6
7
5
8
5
7
9
11
10
10
10
12
16
14
15
15
15
14
16
12
16
23
23
27
20
18
18
10
8
6
4
5
5
4
6
6
3
4
3
3
0
3
-1
-3
1
-1
-2
-4
-3
-5
-3
-6
-7
-5
-7
-4
-5
-4
1
1
0
-6
-9
-8
-12
-18
-21
-15
-20
-19
-21
-19
-14
-21
-18
-12
-17
-16
-18
-16
-17
-17
-19
-20
-22
-25
-25
-25
-24
-25
-20
-20
-16
-18
-19
-14
-12
-13
-13
-15
-9
-12
-12
-9
-11
-10
-13
-10
-15
-11
-10
-6
-5
-5
-5
-7
-24
-49
-86
-126
-156
-169
-162
-141
-106
-74
-48
-29
-16
-2
11
21
26
29
32
38
36
36
34
36
39
35
33
31
29
31
28
26
21
18
15
13
16
18
15
11
7
5
3
5
4
-5
-6
-8
-13
-15
-17
-20
-25
-30
-29
-32
-33
-31
-34
-35
-36
-42
-45
-42
-39
-38
-35
-32
-28
-28
-25
-18
-12
-8
2
4
4
9
10
16
13
15
20
21
20
16
16
16
12
13
13
15
16
13
7
8
5
4
6
2
4
3
0
4
6
7
2
0
1
1
4
2
4
5
3
3
2
2
2
-1
-2
0
1
4
1
-2
4
7
3
-1
-2
-5
-2
2
-1
1
1
4
5
5
4
4
5
3
4
4
5
6
6
7
6
3
0
-4
-5
0
-4
0
-2
-4
1
4
4
4
2
-1
-1
-2
-2
-3
-1
-3
-4
-2
-4
-6
-6
-4
-9
-6
-8
-8
-8
-12
-11
-9
-8
-10
-11
-10
-8
-12
-13
-15
-16
-17
-21
-24
-28
-26
-31
-26
-29
-29
-25
-24
-22
-21
-21
-16
-16
-16
-17
-15
-14
-13
-12
-12
-10
-14
-11
-13
-10
-8
-11
-4
-9
-16
-31
-57
-93
-128
-161
-183
-175
-148
-110
-76
-47
-24
-10
0
9
16
20
24
31
29
29
30
27
30
28
30
31
27
29
28
22
21
16
11
12
11
7
6
5
4
4
3
-2
-2
-4
-4
-5
-9
-6
-9
-8
-8
-12
-16
-18
-25
-32
-31
-34
-35
-36
-37
-38
-41
-38
-39
-37
-37
-35
-35
-29
-25
-18
-14
-8
-5
0
6
6
7
10
14
16
16
19
17
15
12
7
3
2
1
-4
0
-3
-4
-3
-5
0
-4
-1
1
4
1
8
8
7
12
7
6
6
3
5
4
7
8
13
13
12
16
16
16
17
20
20
17
14
13
12
13
16
15
10
10
5
9
10
8
8
7
11
8
8
6
3
3
1
4
4
0
-4
-2
-5
-4
-9
-10
-12
-11
-6
-7
-13
-8
-6
-9
-9
-15
-13
-11
-14
-11
-12
-9
-12
-12
-16
-16
-25
-25
-28
-25
-27
-23
-19
-19
-12
-13
-10
-8
-6
-3
-2
0
-1
1
-1
1
-3
-2
-6
-10
-13
-15
-14
-17
-15
-18
-16
-19
-14
-10
-9
-8
-11
-11
-10
-12
-10
-12
-11
-9
-9
-9
-10
-10
-12
-12
-14
-9
-9
-6
-11
-22
-39
-71
-105
-140
-162
-164
-150
-120
-88
-61
-40
-19
-9
4
12
12
13
14
14
12
16
18
17
16
15
15
14
16
10
9
4
2
1
-1
0
-3
4
-4
-5
-4
-2
-3
-1
-7
-15
-12
-12
-14
-19
-20
-21
-24
-20
-23
-26
-27
-26
-33
-33
-36
-36
-32
-37
-41
-34
-38
-38
-41
-40
-41
-38
-34
-30
-25
-19
-10
-6
2
6
1
4
-1
6
8
7
18
18
18
22
15
23
24
16
13
9
6
9
8
5
12
6
4
4
0
2
5
6
6
6
0
-2
4
11
7
3
3
0
1
-1
-2
-4
-4
-5
-7
-5
-4
-5
-7
-7
-2
-5
-3
-6
-7
-5
-4
-5
-2
-1
1
-2
-4
1
4
-4
-7
-10
-8
-12
-9
-2
-3
-3
-4
-5
-7
-9
-5
0
-1
-5
-4
-5
-6
-4
-4
-5
-7
-5
-4
-7
-8
-8
-3
-8
-6
-4
0
-5
-9
-10
-13
-14
-17
-20
-24
-28
-28
-28
-26
-25
-20
-16
-13
-11
-6
-9
-15
-16
-16
-14
-17
-13
-10
-8
-9
-6
-6
-3
-3
-5
1
-1
-1
1
4
-4
-14
-39
-67
-104
-140
-159
-156
-130
-94
-62
-33
-16
6
18
19
18
15
17
19
23
23
24
24
25
28
28
26
22
20
19
18
20
17
14
14
14
14
15
12
14
14
12
12
9
5
4
-1
-1
-6
-6
-6
-7
-7
-8
-11
-13
-12
-15
-18
-18
-20
-21
-17
-21
-19
-20
-23
-18
-17
-17
-17
-10
-5
0
4
3
7
11
14
16
16
20
18
17
19
23
20
20
20
20
21
19
18
20
18
19
19
19
19
20
19
19
19
15
10
8
8
8
9
6
6
5
9
11
11
13
18
20
17
20
15
22
18
18
18
16
15
18
15
14
15
16
15
12
9
6
9
9
9
8
10
9
9
5
6
6
8
6
9
9
15
16
17
17
14
14
11
9
8
4
-1
1
0
-2
-1
0
-4
-3
-2
-6
-4
-7
-8
-11
-17
-14
-16
-13
-17
-14
-14
-14
-12
-13
-9
-5
-5
-3
-4
-1
-1
3
-3
0
-4
-3
-3
-2
-4
-3
-7
-4
-4
-4
-1
-4
-8
-25
-52
-86
-118
-145
-150
-139
-107
-71
-44
-19
-8
4
9
11
12
13
14
16
16
17
16
13
14
14
12
11
8
3
5
3
3
1
1
2
0
3
-3
-2
-1
-5
-7
-8
-11
-10
-15
-14
-18
-19
-18
-20
-24
-28
-29
-32
-30
-32
-33
-37
-40
-45
-54
-60
-60
-63
-60
-60
-62
-61
-55
-51
-47
-43
-44
-36
-31
-28
-23
-18
-12
-13
-10
-8
-3
-4
-5
-5
-6
-5
-3
-4
-5
-6
-6
-6
-4
-3
-5
-6
-6
-8
-11
-8
-9
-8
-8
-8
-2
-8
-9
-5
-7
-9
-4
-9
-9
-9
-9
-7
-5
-2
-3
-4
-4
-4
-9
-5
-8
-4
-7
-11
-6
-8
-8
-10
-7
-7
-10
-6
-7
-5
-2
-3
-2
0
1
-4
-4
0
-3
-2
-2
1
-2
-5
-2
-4
-5
-4
-5
-3
-6
-11
-9
-15
-18
-16
-22
-21
-24
-29
-24
-22
-22
-16
-17
-12
-13
-10
-9
-11
-13
-14
-17
-12
-14
-14
-13
-12
-8
-5
-4
-7
-3
-3
-10
-27
-53
-82
-114
-132
-125
-110
-79
-42
-10
11
21
24
29
29
27
26
29
25
24
19
17
14
5
4
0
3
-1
0
4
8
13
11
9
9
9
12
7
6
6
8
3
-5
-7
-10
-15
-15
-25
-23
-25
-27
-29
-30
-32
-32
-34
-34
-32
-36
-33
-34
-36
-33
-31
-29
-25
-25
-23
-22
-25
-18
-15
-12
-15
-6
-1
4
6
10
12
11
16
20
23
20
19
21
21
17
18
15
18
18
15
14
15
14
13
12
10
5
6
4
5
8
7
6
5
7
10
12
12
16
15
14
16
13
12
12
5
12
10
11
14
16
14
16
16
15
13
17
18
14
15
11
7
4
8
8
6
6
6
4
3
4
-1
0
-4
-6
-9
-9
-7
-8
-6
-7
-2
-5
-6
0
-2
-4
-6
-8
-7
-5
-9
-8
-8
-7
-7
-8
-11
-7
-9
-10
-20
-36
-60
-88
-120
-140
-139
-120
-92
-58
-34
-15
-5
4
9
14
11
12
14
15
14
11
7
10
12
9
5
4
3
-1
2
1
-1
-2
0
0
-1
2
-4
-5
-5
-6
-9
-6
-13
-12
-8
-17
-19
-22
-20
-22
-20
-23
-25
-27
-28
-31
-30
-32
-32
-32
-31
-29
-28
-27
-28
-27
-25
-25
-20
-15
-10
-5
-6
-1
3
7
8
11
18
20
25
27
32
32
36
31
34
31
28
27
25
28
25
29
29
23
22
22
25
23
19
23
21
17
19
15
14
14
16
16
19
20
16
19
16
16
13
8
11
11
12
14
10
12
7
8
8
8
11
8
2
3
-1
1
-1
2
0
-4
-3
-5
-5
-11
-11
-13
-12
-13
-13
-13
-9
-9
-10
-8
-8
-6
-5
-4
-4
-5
-4
-7
-5
-5
-3
-5
-4
-9
-8
-6
-7
-9
-19
-41
-68
-106
-132
-149
-140
-121
-86
-57
-34
-17
-6
0
5
7
11
8
10
9
8
6
8
8
9
11
9
6
6
4
1
-3
-6
-2
2
0
-1
-7
-3
-5
-4
-6
-9
-10
-10
-12
-10
-10
-15
-17
-17
-18
-20
-19
-21
-21
-21
-27
-26
-29
-33
-31
-31
-33
-32
-32
-31
-28
-28
-27
-26
-24
-23
-19
-16
-10
-8
-5
-1
2
3
4
6
7
8
10
11
14
6
8
4
6
5
5
3
5
2
3
0
-1
-4
-5
-4
-9
-14
-23
-33
-40
-44
-49
-48
-45
-44
-48
-46
-43
-43
-45
-41
-43
-39
-36
-35
-35
-29
-29
-22
-27
-27
-26
-27
-24
-23
-21
-25
-20
-18
-19
-18
-24
-23
-23
-27
-23
-18
-14
-14
-14
-9
-7
-8
-7
-4
-4
-3
0
-1
-3
3
2
3
4
1
4
6
5
5
9
7
-6
-22
-46
-78
-106
-127
-128
-117
-84
-52
-26
-7
11
20
20
29
27
27
30
33
35
37
36
35
35
38
35
39
36
37
44
51
60
63
64
69
67
67
63
62
64
59
57
58
56
54
50
47
47
43
42
39
35
31
29
27
25
22
19
17
14
12
5
7
8
8
8
7
5
5
4
8
9
13
13
14
17
22
22
26
22
18
16
11
9
8
13
15
19
20
18
17
13
13
12
8
7
7
7
12
3
3
6
2
3
3
3
4
1
-4
-8
-4
-6
-2
-7
-6
-10
-10
-8
-11
-10
-8
-10
-11
-17
-20
-20
-23
-19
-16
-12
-12
-18
-21
-23
-23
-18
-20
-22
-23
-22
-22
-19
-20
-18
-14
-15
-14
-18
-28
-31
-41
-40
-45
-47
-40
-37
-37
-34
-28
-28
-35
-34
-34
-30
-29
-28
-25
-30
-41
-65
-92
-124
-156
-168
-162
-133
-98
-67
-40
-23
-8
0
4
7
12
12
13
7
3
3
9
16
12
5
-3
-7
3
9
11
12
8
6
0
-6
-12
-7
-1
1
-4
-5
-9
-14
-8
-5
-6
-12
-16
-22
-22
-20
-20
-23
-27
-30
-34
-42
-47
-49
-46
-44
-42
-35
-26
-28
-37
-41
-38
-25
-14
-6
-4
-1
0
-3
-5
-4
-5
3
4
5
9
12
17
24
21
25
19
15
7
11
11
10
9
9
9
7
9
10
9
4
8
8
12
10
12
10
14
10
11
7
12
13
12
10
12
13
12
13
12
12
12
12
9
9
11
12
9
10
8
5
5
0
2
3
-3
-6
-9
-14
-19
-18
-20
-24
-20
-24
-25
-20
-19
-16
-12
-14
-13
-14
-13
-16
-15
-16
-11
-14
-8
-14
-19
-33
-55
-83
-118
-142
-160
-150
-137
-101
-72
-49
-35
-21
-16
-10
-7
-12
-6
-9
-6
-6
-3
-9
-4
-7
-5
-5
-4
-4
-9
-7
-7
-9
-4
-7
-4
-9
-11
-8
-10
-8
-11
-7
-12
-11
-8
-14
-20
-28
-32
-29
-35
-34
-33
-39
-41
-42
-48
-45
-45
-47
-43
-37
-39
-36
-39
-38
-37
-32
-32
-25
-25
-21
-18
-15
-10
-7
-5
1
1
7
11
12
13
12
13
13
13
15
16
15
14
17
16
17
16
15
10
10
7
10
10
7
9
8
6
2
-1
1
2
4
2
6
7
5
6
10
9
9
6
7
8
8
9
10
10
11
10
8
9
7
3
7
6
2
1
-1
-6
0
-5
-3
4
2
7
8
5
8
8
10
11
11
12
12
12
9
11
12
8
4
7
14
13
8
-5
-19
-46
-77
-109
-120
-118
-99
-71
-35
-12
2
16
24
23
28
27
32
30
29
25
26
24
22
24
20
20
20
16
14
11
11
12
5
11
3
4
5
8
3
4
3
3
-3
-5
-4
-9
-11
-14
-17
-12
-8
-8
-12
-11
-15
-16
-17
-17
-17
-13
-13
-16
-17
-15
-16
-16
-17
-17
-15
-10
-13
-10
-8
-2
4
3
7
9
10
12
13
13
12
11
14
12
12
12
11
14
8
6
8
8
6
3
3
4
7
7
5
6
3
4
3
5
7
10
6
9
7
7
3
4
3
2
5
4
2
4
5
4
4
3
-1
1
-2
-3
-5
-9
-9
-4
-5
1
4
13
15
19
19
24
25
25
25
27
25
19
19
18
24
22
22
21
20
17
14
9
11
9
11
10
13
12
8
-14
-41
-74
-112
-139
-143
-133
-109
-78
-49
-24
-8
-1
9
14
14
17
18
18
16
15
14
15
11
12
7
7
7
9
10
8
7
1
-2
-2
-3
-7
-6
-11
-7
-9
-13
-15
-19
-21
-23
-20
-25
-26
-30
-33
-36
-41
-45
-44
-49
-52
-56
-60
-59
-52
-48
-46
-43
-41
-43
-38
-40
-34
-27
-29
-29
-21
-21
-19
-15
-8
-8
-11
-6
-10
-7
-6
-6
-5
-9
-8
-8
-7
-13
-13
-17
-19
-21
-20
-19
-20
-18
-20
-20
-18
-13
-14
-13
-12
-12
-17
-22
-16
-15
-7
-5
5
11
10
16
14
20
16
15
17
13
15
14
13
8
7
3
-1
-3
-4
-1
-2
-4
-5
-2
-11
-10
-12
-20
-20
-25
-31
-30
-34
-34
-37
-40
-36
-33
-29
-28
-31
-29
-29
-27
-27
-25
-26
-25
-24
-24
-28
-25
-22
-22
-25
-25
-23
-20
-17
-20
-28
-41
-65
-99
-127
-151
-160
-157
-128
-99
-69
-45
-33
-18
-13
-6
-4
1
1
4
4
5
6
2
-1
4
4
3
6
6
6
6
3
-2
0
-1
-5
-3
0
3
-1
-3
-1
-3
-3
-4
-7
-4
-8
-4
-9
-5
-8
-8
-10
-6
-9
-12
-10
-13
-7
-7
-9
-7
-13
-10
-9
-10
-5
-7
-2
-2
-4
1
3
-1
7
11
10
13
12
18
15
16
16
15
16
14
16
17
13
15
12
15
15
16
16
14
12
11
8
7
7
7
10
8
8
7
8
8
10
13
15
14
13
9
12
9
14
14
17
18
19
22
23
23
23
24
21
22
18
16
18
19
17
19
22
20
16
13
14
12
9
11
8
7
10
4
6
4
7
7
8
13
16
20
22
24
28
29
35
31
33
28
24
19
17
15
9
10
6
7
6
6
6
4
-9
-27
-50
-86
-120
-149
-157
-142
-121
-86
-60
-37
-24
-12
-7
-2
5
5
12
5
6
6
5
6
8
3
2
5
1
-2
1
-2
1
2
-1
-5
-7
-9
-12
-13
-13
-10
-14
-14
-17
-21
-21
-21
-23
-26
-27
-25
-29
-30
-33
-35
-36
-33
-33
-29
-31
-28
-25
-25
-24
-24
-23
-21
-25
-19
-22
-16
-14
-10
-9
-2
4
10
14
14
14
14
11
8
8
11
10
11
8
6
9
9
7
9
11
10
8
8
9
13
15
16
16
11
8
6
6
5
5
3
4
8
14
20
21
26
25
30
26
26
24
28
17
13
14
10
9
5
0
1
-3
-6
-6
-6
-7
-5
-11
-8
-10
-7
-3
-5
-10
-11
-11
-10
-13
-15
-17
-14
-18
-13
-11
-9
-12
-11
-9
-9
-7
-8
-8
-9
-5
0
-1
-4
-3
-4
-4
-7
-4
-6
-6
-1
3
0
-14
-34
-63
-95
-122
-137
-128
-104
-69
-40
-17
-5
12
13
11
14
17
13
17
13
17
18
17
16
14
15
15
14
15
16
19
16
15
9
11
8
12
11
10
11
11
13
16
11
18
18
22
18
20
17
18
21
16
14
7
5
-1
2
-7
-5
-9
-9
-14
-13
-15
-16
-24
-24
-27
-21
-18
-15
-14
-6
2
2
3
5
6
8
3
1
0
2
1
-3
-8
-6
-4
-7
-4
4
3
2
-3
-1
2
6
7
4
5
6
10
10
8
5
6
5
4
4
4
4
-5
-12
-9
-9
-8
-8
-12
-14
-14
-14
-14
-20
-25
-29
-27
-22
-24
-28
-29
-32
-34
-36
-35
-38
-35
-36
-42
-47
-50
-48
-50
-52
-60
-64
-64
-62
-56
-55
-48
-38
-28
-25
-31
-34
-33
-24
-20
-9
-6
1
-1
2
-3
-6
-10
-14
-12
-17
-13
-12
-12
-21
-47
-77
-109
-132
-136
-133
-109
-77
-50
-29
-19
-16
-19
-22
-26
-28
-26
-26
-23
-24
-22
-19
-18
-12
-17
-15
-15
-11
-8
-8
-8
-8
-1
2
5
6
2
2
0
1
-6
-6
-10
-10
-14
-15
-20
-25
-27
-26
-26
-32
-27
-29
-25
-33
-33
-33
-32
-34
-31
-34
-35
-33
-33
-33
-37
-34
-36
-32
-28
-26
-24
-18
-14
-10
-9
-5
-7
-8
-8
-10
-6
-8
-10
-10
-10
-12
-9
-7
-2
0
1
6
7
6
8
13
13
22
23
24
21
26
29
33
38
37
37
40
38
35
36
37
31
34
30
22
22
23
22
22
22
22
21
22
23
24
24
23
24
21
20
21
19
21
22
16
16
14
11
13
6
8
3
2
0
0
4
9
14
18
20
21
25
26
25
28
27
27
29
27
23
24
23
22
20
23
24
26
25
18
0
-25
-50
-80
-103
-109
-92
-66
-31
0
23
35
50
57
60
60
59
59
58
56
49
44
40
34
31
26
21
17
13
9
4
0
-3
-6
-7
-13
-16
-16
-17
-21
-23
-27
-30
-31
-31
-33
-36
-33
-30
-35
-40
-48
-47
-46
-44
-44
-49
-46
-47
-46
-42
-41
-38
-41
-39
-34
-35
-29
-26
-24
-21
-17
-6
-7
3
3
8
11
11
10
11
10
12
13
18
16
11
8
6
6
9
9
8
12
14
11
12
5
10
8
6
8
7
8
10
8
5
7
7
5
4
4
7
8
6
3
4
4
5
5
1
-3
-1
1
0
-3
-1
-2
0
-1
-4
-3
-5
-5
-7
-13
-9
-10
-11
-16
-14
-14
-13
-14
-10
-7
-8
-8
-9
-9
-7
-4
-5
-4
-6
2
-2
-1
-3
-9
-3
-5
-5
0
-4
-10
-29
-55
-87
-115
-131
-127
-102
-73
-36
-12
8
16
21
22
22
16
14
11
7
10
7
8
5
4
7
8
5
6
2
2
5
3
3
2
-2
-5
-8
-10
-9
-14
-17
-15
-18
-23
-26
-29
-28
-30
-32
-38
-40
-37
-38
-36
-34
-34
-33
-32
-30
-28
-26
-20
-16
-18
-18
-18
-17
-12
-9
-10
-5
-4
4
3
7
10
14
14
16
13
15
13
15
17
18
16
17
16
20
18
14
13
16
20
14
17
20
19
13
18
20
17
17
16
19
19
22
24
19
18
16
17
17
18
15
12
12
12
12
11
10
9
7
4
3
4
2
0
-2
-1
-5
-5
-5
-6
-8
-9
-8
-11
-11
-11
-12
-13
-12
-12
-12
-15
-15
-13
-13
-7
-4
-2
3
3
6
7
6
7
5
7
6
2
-1
0
-4
-4
-1
2
0
-2
-10
-29
-50
-75
-102
-128
-132
-117
-94
-69
-41
-23
-12
-4
1
3
1
1
5
0
5
4
1
3
6
3
-2
-2
3
0
0
-3
-3
-1
-5
4
-1
1
-5
-3
-5
-2
-5
-4
-2
-6
-8
-5
-10
-12
-12
-14
-17
-17
-20
-20
-26
-25
-30
-30
-32
-34
-31
-35
-37
-32
-36
-36
-35
-38
-35
-35
-33
-32
-31
-28
-27
-25
-21
-19
-20
-19
-17
-16
-16
-15
-9
-10
-11
-12
-10
-9
-9
-9
-6
-5
-9
-5
-5
-7
-6
-7
-2
-1
-6
-3
-2
-2
-5
-4
-3
1
-4
-4
2
-1
-3
-2
-2
-2
-2
-4
-5
-3
-2
1
-2
0
1
-3
-1
-2
-1
-1
-5
-4
-6
-3
-4
-11
-10
-10
-10
-15
-13
-10
-8
-10
-9
-10
-6
-2
-3
-5
-7
-9
-6
-6
-7
-6
-6
-9
-9
-8
-8
-10
-4
-4
-6
-20
-41
-69
-97
-123
-138
-133
-113
-82
-56
-32
-21
-12
-3
4
2
3
4
2
4
4
1
-2
-4
-8
-6
-10
-8
-4
-10
-7
-7
-6
-9
-8
-8
-9
-9
-10
-11
-9
-15
-12
-12
-13
-18
-16
-16
-17
-21
-19
-19
-17
-20
-21
-21
-20
-25
-27
-23
-25
-24
-25
-24
-22
-29
-27
-25
-25
-25
-26
-20
-17
-15
-11
-10
-6
0
1
5
4
4
7
8
11
9
6
7
7
9
6
10
11
9
9
9
5
5
10
10
12
10
10
12
15
14
14
15
19
16
19
21
22
19
22
17
20
18
15
17
15
13
14
12
7
3
2
1
-1
-7
-10
-9
-12
-13
-16
-22
-22
-31
-36
-42
-43
-52
-52
-50
-44
-40
-34
-30
-27
-25
-23
-22
-22
-23
-26
-30
-31
-29
-25
-22
-22
-18
-17
-9
-7
-11
-14
-26
-47
-77
-104
-121
-120
-105
-74
-40
-18
-3
11
24
28
25
27
34
30
27
27
27
26
25
26
28
27
24
23
26
21
22
25
22
20
24
17
16
19
15
15
9
3
7
1
5
9
4
3
2
-1
-5
-5
-8
-9
-11
-12
-11
-15
-17
-15
-14
-16
-16
-12
-14
-15
-13
-15
-14
-8
-10
-10
-4
-8
-3
0
0
6
8
10
12
14
14
16
15
14
16
13
16
12
14
16
12
14
13
9
11
11
10
10
12
7
7
9
10
11
9
8
9
12
9
9
10
5
8
12
8
9
8
9
7
12
10
12
13
8
8
10
3
6
-1
-3
-2
-1
-3
3
4
7
9
13
14
15
15
13
18
14
14
15
22
18
21
21
19
24
22
23
28
27
11
-10
-39
-68
-99
-104
-105
-82
-54
-26
-10
4
11
15
16
18
16
14
12
7
3
2
2
3
3
4
0
1
-6
-4
-8
-8
-13
-12
-14
-16
-20
-19
-15
-15
-14
-19
-23
-28
-26
-25
-26
-21
-24
-22
-25
-23
-25
-25
-26
-24
-27
-27
-24
-22
-25
-25
-25
-23
-22
-21
-21
-22
-17
-11
-4
4
-1
4
2
1
5
11
19
24
22
26
27
30
30
25
20
20
25
24
25
28
24
27
29
29
27
26
22
16
19
21
24
28
22
16
9
12
15
17
20
21
17
20
23
23
24
23
27
23
22
17
12
13
12
11
5
8
6
3
6
7
4
3
-1
6
1
3
3
5
-2
1
-3
0
-4
-7
-14
-16
-17
-15
-18
-18
-19
-19
-16
-15
-17
-31
-53
-86
-118
-149
-162
-160
-135
-100
-62
-41
-24
-15
-4
-3
-2
-5
-8
-8
-14
-9
-12
-10
-13
-8
-7
-3
-7
-7
-12
-10
-9
-7
-10
-11
-12
-12
-8
-12
-12
-9
-12
-13
-13
-14
-14
-18
-17
-18
-20
-20
-23
-23
-27
-23
-24
-26
-25
-28
-29
-31
-28
-33
-30
-37
-39
-42
-39
-38
-36
-33
-30
-28
-24
-23
-20
-17
-11
-12
-6
-8
-4
-2
-3
-4
-3
0
0
-1
-2
-3
-3
0
-1
-1
-1
-4
-7
-7
-4
-8
-7
-4
-8
-9
-8
-5
-6
-5
-9
-5
-9
-9
-11
-9
-9
-6
-6
-8
-3
-5
-2
-6
-5
-4
-1
-7
-5
2
0
2
-4
-5
-6
-8
-8
-13
-13
-15
-13
-13
-4
-2
-1
-2
-2
-1
3
2
3
1
4
3
6
5
8
7
11
11
10
10
13
6
-5
-30
-54
-91
-116
-131
-124
-102
-72
-44
-23
-8
2
8
9
16
12
12
8
7
5
5
3
4
2
-3
-1
1
-1
-1
-6
-2
0
-3
-5
2
-1
-3
-2
-4
-2
-4
-6
-4
-1
-5
-5
0
-3
-4
0
-3
-4
-10
-7
-10
-7
-12
-10
-6
-7
-7
-4
-8
-10
-11
-10
-13
-16
-18
-17
-17
-15
-16
-12
-11
-12
-9
-13
-13
-15
-17
-14
-12
-17
-16
-17
-14
-13
-16
-17
-17
-15
-18
-16
-18
-18
-15
-19
-15
-14
-12
-14
-14
-14
-12
-10
-8
-10
-10
-9
-10
-13
-13
-13
-10
-10
-13
-12
-10
-14
-16
-16
-15
-18
-19
-19
-17
-22
-24
-23
-24
-24
-22
-27
-20
-19
-22
-21
-19
-20
-15
-12
-13
-12
-10
-10
-10
-13
-12
-14
-16
-13
-18
-15
-21
-19
-23
-23
-20
-17
-15
-15
-15
-13
-10
-16
-11
-17
-13
-15
-17
-9
-17
-13
-12
-14
-9
-9
-6
-4
-8
-17
-39
-62
-99
-122
-137
-124
-109
-73
-43
-17
1
13
18
20
22
20
18
17
15
12
12
7
6
8
8
8
7
6
4
5
4
6
5
5
6
-4
-2
-9
-8
-7
-3
-4
-3
-2
2
-2
-10
-2
-6
-5
-9
-8
-6
-10
-9
-11
-10
-10
-11
-13
-5
-9
-10
-7
-11
-11
-8
-9
-7
-7
-6
-2
5
5
7
13
13
16
21
23
24
21
21
21
23
25
20
21
23
21
20
20
18
20
20
22
19
20
20
23
27
27
29
32
30
31
28
27
29
33
30
33
31
30
30
28
27
25
23
22
20
20
15
15
16
12
14
9
13
11
12
8
8
5
6
5
4
1
0
-2
-1
-2
3
-2
-3
-6
-3
-7
-5
-6
-7
-9
-8
-5
-6
-3
-2
0
-4
0
-4
-6
-7
-6
-7
-6
-9
-4
-6
-6
-4
-9
-7
0
-6
-12
-29
-56
-90
-122
-138
-134
-114
-86
-52
-20
-2
11
20
24
28
26
28
27
23
22
17
17
15
13
13
8
9
6
6
3
3
-1
0
-1
-1
-5
-4
-7
-13
-10
-5
-5
-6
-6
-6
-5
-8
-8
-8
-10
-10
-12
-11
-15
-20
-24
-22
-27
-32
-31
-32
-34
-36
-38
-37
-36
-37
-41
-38
-37
-37
-32
-24
-20
-23
-18
-19
-15
-12
-14
-18
-26
-34
-35
-38
-34
-34
-33
-32
-34
-33
-28
-27
-27
-24
-29
-25
-12
-4
8
12
16
15
20
20
18
24
22
22
22
19
23
24
21
17
16
14
12
10
8
8
11
6
7
3
6
6
5
3
3
6
6
8
6
8
6
5
5
3
6
5
6
0
0
0
3
4
2
1
-3
-3
2
3
3
5
3
3
8
5
7
6
3
2
-1
-3
3
2
3
5
4
8
9
5
-2
-19
-46
-75
-104
-124
-130
-117
-89
-57
-29
-12
8
14
18
19
24
26
24
23
22
23
19
19
21
22
24
22
19
19
14
13
8
5
6
2
2
5
1
3
-1
2
-3
-4
-9
-9
-6
-3
-4
-7
-8
-9
-9
-12
-14
-21
-25
-28
-28
-29
-28
-28
-36
-41
-42
-41
-39
-39
-35
-33
-32
-33
-24
-23
-21
-16
-12
-7
-5
1
2
-1
-2
-1
6
6
7
8
8
4
1
-1
-4
-6
-5
-3
-2
-2
-5
-8
-9
-4
-6
-6
-5
-4
-9
-10
-9
-10
-9
-6
-6
-4
-4
-4
-7
-9
-8
-4
-3
-3
-6
-5
-3
-3
-6
-9
-4
-6
-6
-7
-8
-10
-10
-10
-10
-9
-10
-10
-10
-16
-11
-10
-9
-12
-9
-9
-8
-6
-6
-5
-8
-9
-10
-9
-11
-11
-12
-11
-14
-19
-17
-15
-14
-12
-13
-13
-10
-9
-7
-7
-6
-8
-9
-5
-2
-3
-2
2
-1
4
6
6
7
4
-12
-37
-63
-93
-118
-131
-122
-96
-69
-38
-20
-9
2
5
12
18
22
22
22
19
21
20
20
20
20
18
15
17
20
14
16
17
17
16
18
13
14
8
5
5
1
1
3
-1
1
0
-2
-5
-7
-12
-12
-17
-17
-21
-23
-26
-28
-26
-29
-29
-24
-29
-28
-27
-25
-26
-26
-24
-25
-25
-23
-18
-12
-12
-6
-5
0
9
14
16
16
14
13
15
15
17
15
14
14
11
9
12
11
7
9
9
6
3
5
4
-2
0
-3
-2
-3
-1
-5
-5
-5
-6
-8
-9
-8
-9
-9
-6
-5
-4
-2
0
-6
-7
-6
-8
-7
-7
-10
-10
-8
-7
-8
-10
-11
-7
-7
-6
-4
-12
-11
-10
-15
-20
-15
-9
-4
-7
-7
-5
-5
-4
-7
-7
-3
0
-2
-3
-2
-3
-7
-9
-5
-9
-10
-12
-11
-14
-18
-14
-12
-13
-16
-17
-17
-16
-11
-8
-9
-7
-8
-11
-11
-13
-14
-17
-10
-7
-4
2
10
15
15
17
22
23
27
26
24
26
28
27
29
31
30
26
28
24
25
30
30
24
7
-17
-52
-85
-109
-114
-99
-68
-33
-9
10
22
26
31
27
31
32
28
25
16
20
19
22
16
19
15
14
12
3
1
-3
-2
-4
-3
-5
-8
-9
-19
-27
-33
-33
-28
-29
-33
-32
-27
-27
-37
-42
-50
-57
-64
-73
-68
-68
-68
-71
-70
-57
-56
-57
-55
-53
-49
-52
-48
-40
-39
-41
-37
-33
-28
-22
-19
-14
-6
-4
1
9
15
21
26
21
16
14
19
25
32
26
20
17
18
17
17
19
19
13
14
19
22
23
22
26
30
27
30
30
32
38
36
34
31
28
24
27
30
38
43
42
31
28
28
32
39
33
32
25
19
22
26
32
27
22
17
16
22
21
12
11
7
7
6
-1
5
7
5
12
8
2
-7
-7
-1
7
20
20
14
11
9
2
3
1
11
9
8
10
4
10
17
17
16
11
12
13
15
15
11
18
20
18
10
4
2
2
5
4
8
1
0
3
11
13
14
13
12
9
3
0
-6
2
2
1
-3
-7
-16
-47
-82
-124
-148
-160
-147
-121
-88
-61
-44
-39
-36
-33
-26
-38
-40
-37
-31
-38
-40
-47
-46
-50
-55
-50
-54
-50
-53
-51
-54
-54
-52
-48
-48
-46
-45
-48
-49
-49
-48
-46
-46
-45
-45
-51
-48
-52
-52
-52
-52
-54
-57
-60
-60
-61
-61
-64
-66
-66
-62
-59
-62
-63
-70
-68
-75
-72
-78
-73
-69
-63
-55
-53
-50
-45
-39
-33
-30
-23
-20
-17
-14
-6
-5
-4
-5
-5
-3
-4
-3
0
-4
-9
-6
-9
-10
-8
-7
-7
-7
-5
-5
-7
-11
-7
-10
-5
-6
-2
2
-1
6
3
8
11
8
9
12
11
10
14
11
10
8
7
8
9
9
9
10
10
12
7
6
2
4
6
5
4
4
4
3
-1
-1
-2
-4
-4
-4
-4
-6
-4
-6
-7
-9
-10
-12
-9
-6
-4
-2
4
4
6
5
12
12
14
9
7
1
1
-5
-5
-7
-9
-16
-16
-15
-15
-17
-10
-11
-8
-8
-5
-4
-3
-2
5
6
6
7
7
7
2
-1
-3
-6
-9
-8
-6
-18
-36
-61
-92
-122
-136
-136
-121
-85
-51
-27
-13
-3
6
11
14
20
19
19
21
21
22
24
20
19
16
14
13
16
13
18
17
19
18
15
18
14
13
9
12
8
3
4
3
1
-1
4
1
4
3
2
2
1
2
1
0
-4
-5
-2
-8
-6
-6
-7
-10
-9
-10
-11
-7
-10
-9
-5
-4
-5
-7
-3
-2
2
5
10
10
12
15
14
15
15
14
17
18
14
12
11
9
9
10
7
12
12
8
12
9
12
10
6
9
6
3
5
5
4
11
9
11
9
12
10
7
10
6
4
10
9
13
12
12
11
11
13
9
10
9
7
8
5
7
11
15
12
10
10
8
11
7
9
12
7
8
7
3
2
4
4
4
5
6
5
5
5
5
0
-2
-9
-8
-3
3
10
12
14
11
12
10
8
12
7
8
4
5
3
-3
2
1
1
6
1
5
6
5
7
3
7
8
7
1
7
4
2
0
-1
1
1
4
4
3
-13
-31
-56
-96
-127
-148
-144
-128
-98
-60
-34
-15
-5
10
9
14
19
16
20
18
16
19
15
17
15
15
12
12
12
8
7
7
3
4
0
-5
-3
-7
-4
-6
-5
-6
-7
-9
-14
-10
-16
-21
-20
-21
-19
-23
-25
-26
-29
-31
-31
-30
-33
-37
-36
-38
-40
-39
-41
-40
-37
-39
-36
-34
-36
-32
-35
-28
-23
-21
-15
-13
-9
-4
-2
-5
-4
-1
-5
-2
1
3
-1
4
4
-4
2
-1
-3
-1
0
2
5
-3
-6
1
-8
-11
-6
-8
-7
-2
-5
-7
-6
-2
-3
-6
-3
-2
-6
-5
-3
-9
-4
-2
-7
-5
-7
-5
-6
-6
-3
-5
0
-3
-5
3
4
6
7
5
5
8
7
6
6
-1
4
0
-2
-3
-1
-3
1
-1
1
-5
-2
-6
-2
-7
-2
-7
-5
-4
-3
-4
0
-1
4
5
4
4
4
3
-1
4
1
4
6
7
9
5
7
7
2
1
0
2
-4
-2
-5
-6
-7
-6
-6
-6
-9
-12
-21
-34
-62
-89
-125
-150
-161
-159
-136
-109
-77
-49
-30
-19
-16
-9
-7
-4
3
3
4
8
12
12
14
18
15
11
10
9
2
-1
0
-2
-6
-6
-7
-8
-11
-9
-8
-9
-4
-6
-7
-2
-4
-4
-5
-5
-4
-8
-2
-4
-4
-3
3
2
-1
1
3
-1
2
3
3
-2
-3
-2
-5
-10
-10
-4
-3
4
6
11
12
10
13
13
12
14
12
18
18
14
13
12
10
12
5
2
5
4
7
7
7
10
11
7
8
6
9
9
2
0
2
-2
-1
-2
-5
-1
4
4
7
11
7
7
3
3
5
7
1
7
7
6
8
5
7
14
12
6
9
6
1
3
0
-2
-3
-3
3
5
7
6
6
2
9
6
1
-1
-2
-2
4
2
3
3
2
1
-3
-5
-8
-10
-12
-17
-13
-14
-14
-10
-10
-10
-13
-13
-8
-10
-13
-10
-13
-13
-11
-12
-12
-8
-9
-12
-9
-9
-7
-10
-19
-33
-61
-91
-121
-142
-144
-133
-103
-68
-41
-22
-13
-5
3
3
4
1
1
1
1
1
-2
-6
-7
-10
-10
-8
-10
-11
-10
-13
-13
-12
-17
-18
-24
-22
-26
-24
-26
-25
-28
-29
-26
-32
-36
-35
-41
-40
-44
-46
-41
-40
-38
-34
-37
-41
-40
-42
-40
-44
-39
-37
-34
-33
-32
-37
-34
-33
-34
-31
-29
-22
-22
-16
-14
-10
-4
2
4
5
6
9
10
17
20
16
15
17
18
19
19
15
20
19
18
23
25
22
21
19
19
19
19
18
16
16
19
15
11
9
11
13
8
3
4
8
6
5
6
4
9
8
4
5
1
7
7
3
4
3
4
2
-1
-3
-3
-3
-6
-7
-8
-7
-8
-11
-8
-6
-9
-7
-5
0
-5
-3
-1
-2
0
-3
-4
-4
-3
-1
1
-2
-5
-7
-6
-5
-5
-4
-1
-5
-12
-32
-59
-94
-123
-141
-141
-118
-88
-50
-22
0
8
12
13
12
8
6
4
2
-5
-7
-5
-8
-5
-8
-10
-10
-9
-12
-12
-19
-21
-18
-22
-18
-20
-18
-22
-22
-25
-21
-25
-24
-29
-28
-30
-28
-31
-28
-34
-37
-39
-39
-40
-42
-43
-41
-41
-38
-38
-34
-38
-37
-34
-34
-32
-34
-28
-28
-25
-22
-17
-12
-6
-4
5
7
11
16
13
16
18
19
19
20
20
24
21
21
15
14
12
14
9
13
12
13
11
14
11
15
9
12
12
15
9
11
7
13
13
12
10
12
15
11
14
9
11
10
11
11
12
14
13
12
16
13
15
14
16
13
13
14
12
9
7
11
5
5
8
2
4
5
6
5
4
6
4
10
9
12
8
12
9
8
9
7
8
5
3
11
14
15
6
-7
-31
-62
-95
-122
-132
-126
-96
-67
-32
-6
12
23
28
33
29
30
31
28
28
24
27
25
24
23
19
22
22
19
19
15
15
16
11
14
12
7
10
7
7
4
3
3
-1
-1
2
-4
-7
-6
-13
-8
-12
-15
-14
-20
-21
-25
-24
-29
-25
-24
-24
-24
-21
-25
-26
-30
-27
-27
-23
-26
-20
-19
-12
-11
-6
-3
2
2
5
7
10
11
10
19
16
24
19
20
19
19
18
15
16
16
12
14
11
12
9
12
8
11
7
11
10
11
6
-1
2
-3
-3
2
2
7
9
7
5
4
9
6
11
8
10
8
12
10
8
7
9
4
3
5
-1
-2
3
-5
-6
-8
-6
-9
-8
-4
3
2
2
3
-2
2
-2
-5
-2
-2
-5
-6
-4
-5
-6
-9
-8
-11
-13
-13
-13
-24
-36
-58
-89
-120
-142
-156
-149
-123
-93
-64
-41
-21
-9
-2
4
7
6
12
11
10
9
13
9
11
9
7
8
9
8
6
6
8
5
2
6
4
2
1
-1
-1
-9
-2
-7
-8
-7
-7
-10
-11
-7
-11
-17
-15
-17
-20
-21
-18
-23
-22
-21
-17
-20
-19
-20
-17
-19
-13
-13
-15
-14
-8
-7
-6
-9
-7
-5
3
2
4
6
12
7
7
7
2
6
5
6
8
12
11
12
14
16
18
17
20
15
20
15
13
13
9
14
11
12
9
13
9
8
10
6
7
8
7
2
4
6
-4
4
3
2
-5
-5
-9
-5
-9
-13
-6
-5
-12
-10
-6
-15
-17
-16
-17
-21
-22
-25
-27
-24
-27
-26
-20
-23
-24
-21
-25
-20
-17
-20
-16
-17
-15
-17
-10
-4
6
16
24
32
40
45
52
44
35
15
-12
-52
-92
-113
-125
-116
-90
-65
-42
-21
-12
-7
-3
-3
-2
-3
0
-3
-4
-6
-7
-8
-6
-7
-9
-7
-13
-10
-11
-13
-20
-27
-28
-29
-32
-27
-26
-22
-24
-22
-23
-26
-19
-20
-21
-21
-22
-19
-16
-18
-21
-20
-19
-19
-22
-23
-19
-17
-22
-18
-23
-23
-21
-19
-14
-16
-20
-17
-17
-13
-10
-4
-4
4
8
9
14
18
15
15
16
13
11
14
16
16
20
24
22
21
28
29
27
30
29
34
36
33
35
36
38
41
38
40
40
32
28
27
24
23
23
26
20
21
19
22
23
19
21
19
17
14
15
11
8
4
-4
-1
1
-3
-4
0
-7
-3
-2
-4
-2
-2
-3
-4
0
1
3
-2
-5
-5
-7
-8
-6
-6
-7
-7
-9
-8
-9
-6
-10
-21
-40
-67
-98
-127
-143
-136
-114
-84
-56
-33
-18
-10
-9
-9
-6
-9
-7
0
3
1
4
5
4
7
8
7
6
4
5
12
13
14
10
10
12
7
5
6
9
8
2
-4
-4
-9
-14
-14
-17
-16
-16
-19
-19
-23
-24
-29
-29
-29
-32
-33
-30
-34
-32
-33
-34
-39
-34
-37
-37
-34
-36
-33
-29
-23
-23
-18
-16
-15
-9
-7
-3
4
-2
-1
-4
1
-2
-5
-3
-7
-5
-10
-6
-13
-7
-9
-8
-11
-10
-13
-13
-10
-10
-11
-10
-8
-11
-11
-8
-9
-8
-7
-10
-13
-12
-10
-12
-14
-15
-12
-12
-9
-9
-10
-6
-11
-11
-12
-13
-16
-18
-25
-23
-26
-25
-25
-26
-18
-19
-17
-17
-13
-8
-11
-10
-16
-12
-9
-10
-11
-13
-13
-16
-12
-14
-9
-10
-4
-7
-12
-28
-52
-76
-112
-132
-137
-120
-92
-59
-28
-12
-1
10
11
14
15
10
14
10
12
12
13
7
12
9
12
8
6
5
3
7
4
6
4
4
-1
-2
0
-2
2
-4
0
-7
-10
-12
-13
-17
-21
-17
-18
-14
-14
-16
-18
-19
-21
-19
-19
-19
-21
-18
-22
-22
-24
-24
-22
-21
-19
-17
-19
-12
-9
-11
-9
3
6
4
9
10
16
18
14
13
17
13
10
7
9
11
8
6
7
7
4
1
-1
3
13
5
0
-3
-3
0
4
5
3
1
2
6
1
3
5
7
7
9
5
5
8
7
8
11
8
8
7
10
6
10
4
6
1
2
-1
-3
2
-2
2
-4
-1
-2
2
1
6
-1
0
-4
-5
-10
-12
-18
-10
-13
-11
-9
-6
-9
-4
-5
-7
-4
-1
-1
1
2
2
0
0
-1
-3
-7
-3
-4
-2
1
0
3
-5
-10
-33
-61
-94
-132
-152
-149
-129
-97
-58
-30
-11
3
15
15
21
24
26
27
27
30
28
25
23
22
25
21
19
18
17
15
15
16
14
11
13
9
7
6
5
1
-1
-2
-8
-8
-5
-9
-12
-17
-18
-17
-19
-26
-26
-25
-29
-29
-31
-30
-30
-32
-36
-36
-37
-35
-37
-32
-32
-34
-31
-32
-25
-20
-23
-17
-12
-8
-3
1
7
7
6
8
9
7
8
7
9
3
4
-2
-5
-4
-5
0
1
1
1
2
0
2
1
3
4
3
6
3
5
4
5
4
3
4
6
3
3
-3
4
1
5
3
3
6
2
4
1
4
2
2
1
2
4
-1
-2
0
-3
-3
-1
-4
-5
-8
-5
-5
2
-2
-3
-6
-4
-7
-8
-9
-4
-3
-7
-4
-6
-8
-6
-6
-6
-7
-11
-12
-13
-17
-16
-15
-13
-14
-13
-11
-8
-8
-7
-4
-7
-3
-4
-5
-2
-3
4
0
-3
2
-3
-5
-5
-2
-1
-4
-11
-31
-54
-83
-119
-142
-147
-130
-104
-67
-41
-19
-7
6
12
15
20
20
23
17
24
25
24
26
19
15
12
14
14
12
9
8
6
8
3
3
3
-5
2
-3
-5
-3
-9
-4
-10
-8
-12
-12
-12
-16
-17
-18
-18
-26
-22
-23
-26
-25
-26
-25
-31
-28
-31
-23
-28
-24
-26
-25
-24
-28
-25
-28
-20
-18
-13
-7
4
3
9
14
17
17
18
23
26
30
31
37
35
38
34
37
32
28
29
27
28
24
26
25
25
24
18
19
15
15
16
12
12
8
9
7
8
8
6
6
8
5
8
3
1
0
2
4
3
1
-2
-5
-8
-7
-8
-9
-5
-7
-3
-6
0
-1
2
-4
-2
0
-4
3
-4
-4
-4
-9
-6
-4
-6
-4
-5
-5
-4
-2
2
-5
-2
-2
-2
-8
-9
-6
-4
-9
-4
-6
-6
-5
-9
-4
-6
-8
-9
-13
-15
-12
-16
-20
-20
-22
-19
-16
-21
-21
-19
-20
-14
-14
-14
-8
-10
-9
-8
-9
-14
-12
-13
-15
-17
-17
-11
-8
-11
-2
0
-11
-19
-41
-70
-109
-131
-148
-142
-118
-90
-62
-38
-20
-8
-2
5
6
6
8
6
5
2
-5
-3
-3
-3
-2
-2
-4
-4
-8
-11
-8
-8
-9
-9
-8
-10
-9
-11
-6
-9
-7
-10
-12
-12
-13
-13
-17
-20
-21
-25
-28
-29
-33
-30
-31
-35
-38
-37
-42
-39
-39
-39
-36
-33
-32
-33
-30
-28
-34
-33
-31
-27
-22
-19
-14
-14
-12
-6
-4
1
5
3
4
4
3
7
5
6
6
8
7
7
8
8
8
10
11
7
12
15
14
9
3
6
8
9
8
7
6
9
10
10
13
14
13
14
14
13
18
15
13
11
13
15
12
10
13
11
12
10
10
12
9
6
9
3
3
4
5
8
3
3
1
-5
-3
-2
-3
-2
-2
-2
-1
-2
-4
-9
-5
-7
-8
-2
-3
-6
-7
-6
-6
-11
-8
-8
-6
-9
-9
-9
-9
-7
-13
-9
-6
-7
-8
-6
-8
-4
-7
-9
-6
-7
-8
-9
-6
-13
-11
-11
-11
-12
-17
-18
-17
-16
-20
-18
-12
-8
-6
-7
-6
-4
-6
-7
-3
-4
-8
-8
-10
-8
-5
-1
-4
-2
-3
0
-5
-14
-30
-57
-90
-122
-138
-136
-120
-90
-61
-35
-20
-2
4
9
13
16
16
19
18
20
24
22
23
24
22
18
16
17
18
18
13
12
11
12
10
5
4
5
1
4
-1
-4
-5
-6
-6
-6
-4
-6
-10
-13
-13
-13
-17
-17
-20
-22
-22
-26
-25
-29
-29
-24
-22
-17
-19
-19
-22
-20
-20
-21
-20
-20
-20
-16
-13
-10
-10
-5
-5
-1
1
3
6
3
8
7
10
9
8
5
7
5
6
9
8
9
14
14
14
12
11
9
11
14
12
11
11
12
12
8
11
7
10
7
8
12
9
9
12
14
12
8
6
10
4
5
4
5
4
3
5
6
8
5
4
4
2
6
4
4
2
3
5
3
-1
-2
0
-2
-5
-6
-9
-4
-6
-9
-9
-8
-9
-8
-10
-11
-13
-12
-13
-12
-8
-6
-9
-6
-5
-5
-4
-4
-4
-4
-6
-5
-4
-4
-3
-4
-7
-12
-12
-11
-12
-13
-13
-13
-13
-12
-14
-15
-12
-17
-12
-14
-14
-10
-13
-13
-13
-13
-13
-12
-9
-12
-12
-14
-11
-10
-5
-5
-9
-20
-40
-65
-91
-120
-140
-139
-126
-93
-64
-36
-23
-13
-3
3
7
8
7
10
10
9
9
6
6
7
6
1
5
-1
1
-2
-2
4
-4
-6
-4
-5
-9
-4
-6
-9
-5
-4
-6
-7
-13
-12
-12
-12
-15
-16
-12
-16
-20
-21
-20
-25
-27
-24
-29
-25
-27
-28
-28
-24
-26
-27
-25
-26
-23
-21
-21
-16
-15
-9
-9
-5
6
6
9
12
12
14
14
15
17
20
15
14
12
7
13
14
12
14
12
11
13
12
8
8
7
8
6
4
8
8
5
11
8
8
10
8
9
7
9
9
7
7
7
10
10
10
8
7
11
10
7
10
5
6
3
0
-1
1
-2
-4
-3
-3
-4
-4
-4
-2
-2
-1
-2
-3
-4
-5
-5
-4
4
-5
-1
-2
0
1
-2
-1
-2
3
1
1
-3
-2
-4
-7
-13
-11
-16
-14
-17
-17
-21
-21
-15
-14
-12
-10
-10
-5
-2
-5
-2
-9
-8
-7
-9
-4
-8
-3
-4
-1
-1
2
2
1
-6
-14
-37
-59
-92
-121
-136
-134
-115
-82
-55
-32
-16
-9
-1
8
10
14
14
16
14
11
15
14
13
10
13
11
11
10
6
4
2
3
3
-7
-4
0
-3
-7
0
-7
-5
-1
1
1
3
-2
-8
-14
-18
-21
-21
-26
-26
-27
-26
-28
-25
-29
-26
-31
-31
-30
-29
-27
-29
-25
-27
-25
-23
-22
-17
-16
-14
-11
-8
-7
-1
2
0
-3
-4
3
1
-1
1
6
0
9
4
5
3
3
7
2
-5
-2
-3
-5
-4
-2
0
3
2
4
2
2
0
4
-4
-3
0
5
8
15
12
12
14
15
19
17
18
15
15
20
15
20
19
19
14
16
16
15
14
22
21
20
16
14
15
9
10
3
3
4
2
5
6
2
1
0
2
2
3
-3
-1
-2
-2
0
-4
-9
-9
-6
-11
-9
-10
-7
-2
2
2
6
3
3
-1
-1
-5
-4
-5
-3
4
4
4
6
7
11
13
13
16
14
6
-11
-33
-61
-88
-112
-118
-113
-87
-58
-42
-35
-30
-24
-20
-19
-17
-14
-17
-14
-13
-5
3
22
30
34
35
36
32
24
11
0
-6
-7
-8
-8
-4
-1
-1
-4
-4
-7
-7
-9
-17
-18
-17
-12
-8
-13
-23
-29
-31
-31
-31
-32
-35
-37
-35
-32
-30
-30
-33
-31
-34
-30
-17
-12
-10
-17
-12
-12
-26
-29
-30
-27
-18
-12
3
13
5
0
-7
-5
-5
-8
-5
-5
1
3
-1
-3
6
7
-1
-2
0
-5
-6
-2
-4
-14
-20
-28
-30
-29
-19
-13
-13
-12
-7
-1
-4
-15
-13
-10
-9
-9
-9
-6
-9
-10
-11
-6
-2
3
-1
-7
-11
-16
-17
-18
-20
-20
-19
-20
-20
-23
-18
-14
-13
-13
-12
-9
-5
-8
-12
-17
-15
-19
-19
-18
-17
-15
-12
-11
-19
-16
-19
-18
-19
-17
-17
-17
-18
-14
-18
-10
-13
-15
-17
-21
-22
-19
-19
-21
-23
-22
-22
-24
-23
-26
-24
-18
1
26
49
65
63
50
27
-5
-42
-77
-94
-94
-77
-46
-29
-11
1
14
21
30
36
45
49
52
55
54
51
47
51
49
47
44
44
41
35
29
26
29
34
32
27
26
23
18
9
10
5
2
-2
-5
-8
-5
-6
-9
-12
-13
-16
-21
-23
-19
-23
-26
-30
-33
-31
-34
-36
-32
-33
-32
-34
-31
-27
-29
-29
-29
-20
-16
-15
-12
-13
-9
-7
-2
4
7
8
7
11
14
12
14
15
15
11
9
5
-4
-2
-4
2
0
0
-7
-5
-10
-12
-15
-18
-19
-25
-25
-22
-25
-37
-41
-37
-32
-29
-30
-28
-23
-27
-28
-25
-26
-26
-25
-23
-27
-29
-27
-30
-31
-31
-33
-32
-35
-34
-32
-31
-32
-36
-40
-40
-34
-35
-33
-31
-28
-27
-26
-29
-25
-23
-17
-18
-11
-10
-10
-10
-11
-3
6
8
7
6
7
9
12
11
7
10
8
7
5
6
9
15
16
16
4
-12
-41
-70
-100
-117
-121
-112
-87
-52
-24
-7
13
21
26
28
26
25
19
23
28
31
29
21
19
23
24
24
23
22
19
19
19
14
16
15
16
17
7
8
5
-4
-4
-6
-10
-13
-18
-22
-20
-27
-24
-25
-26
-26
-27
-25
-29
-29
-27
-30
-31
-30
-36
-36
-37
-37
-33
-33
-28
-26
-27
-21
-15
-13
-9
-8
-4
-1
-2
4
7
9
7
11
13
17
15
13
15
13
13
14
16
14
18
17
16
15
11
11
13
9
10
10
10
10
1
-1
3
-4
-1
2
-2
-1
-2
-5
-7
-10
-17
-11
-6
-6
-4
-4
-7
-4
-7
-11
-5
-8
-11
-8
-9
-11
-8
-8
-10
-6
-9
-8
-9
-9
-4
-8
-13
-9
-10
-7
-7
-4
-5
-9
-11
-15
-21
-21
-24
-26
-19
-20
-18
-16
-15
-9
-8
-6
-7
-5
-9
-5
-5
-9
-4
-3
-4
-7
-9
-9
-5
2
1
-4
-24
-46
-78
-111
-146
-161
-151
-136
-101
-67
-42
-17
-3
7
14
18
15
22
21
27
27
25
24
23
16
15
14
18
14
17
15
15
16
7
9
6
1
4
2
5
3
1
-1
-4
-10
-12
-12
-16
-15
-19
-16
-18
-20
-21
-16
-17
-15
-19
-13
-18
-18
-18
-16
-12
-18
-19
-17
-19
-16
-11
-7
-5
-2
1
6
11
16
21
20
25
25
24
22
26
25
24
25
23
25
24
20
25
23
20
22
18
20
22
18
18
19
19
17
19
20
20
23
19
19
21
16
20
23
20
21
21
21
22
18
14
12
11
10
13
14
15
17
14
15
13
13
21
14
17
17
19
16
12
14
14
9
11
13
6
6
6
2
-1
2
-5
-1
-5
-9
-10
-10
-13
-11
-12
-7
-3
-5
-6
1
-4
-5
-7
-6
-14
-10
-9
-14
-13
-12
-11
-14
-15
-9
-4
-9
-11
-33
-58
-92
-132
-162
-166
-159
-139
-102
-66
-42
-25
-8
-4
5
12
11
11
16
14
15
16
15
14
14
15
13
9
14
8
6
9
7
8
6
5
-2
1
3
-4
-6
-8
-9
-15
-14
-16
-18
-23
-20
-23
-23
-26
-29
-29
-32
-33
-32
-34
-38
-35
-38
-36
-37
-40
-37
-36
-37
-41
-38
-35
-33
-29
-27
-28
-25
-18
-19
-16
-14
-10
-5
-2
-3
-3
-2
-1
4
3
-2
-2
0
0
2
-5
-5
-3
-6
-7
-8
-7
-9
-13
-11
-9
-9
-5
-9
-7
-8
-6
-9
-9
-8
-9
-9
-9
-13
-7
-11
-9
-7
-10
-9
-6
-9
-11
-9
-8
-9
-9
-11
-12
-14
-15
-17
-16
-12
-11
-13
-13
-13
-15
-14
-17
-22
-23
-25
-25
-28
-22
-22
-20
-21
-14
-11
-11
-6
-9
-7
-7
-2
-7
-7
-4
-4
-2
-5
-4
-5
4
-5
-8
-28
-52
-88
-129
-158
-174
-164
-132
-100
-66
-40
-20
-8
6
9
11
12
15
15
13
16
19
19
21
16
9
5
2
4
1
1
1
0
3
3
3
5
-1
2
-2
-3
-4
-7
-4
-8
-12
-12
-14
-14
-16
-15
-18
-19
-19
-20
-22
-26
-26
-28
-26
-25
-30
-31
-29
-33
-34
-27
-16
-11
-4
3
4
3
5
8
9
12
10
15
21
24
24
25
23
27
26
22
18
18
12
10
10
8
7
10
7
15
15
16
18
15
11
12
9
10
5
10
7
6
9
8
7
5
6
5
3
3
2
0
3
7
4
7
6
6
1
4
-1
0
-1
-4
-5
-7
-7
-7
-10
-9
-4
-3
-9
-4
-2
-5
2
3
-1
-5
3
-1
-1
-4
-2
-5
-5
-7
-13
-15
-21
-31
-44
-69
-89
-120
-147
-161
-154
-133
-100
-63
-36
-17
-2
9
12
9
10
11
12
11
11
10
16
13
16
19
18
17
17
18
20
20
24
19
22
15
15
13
18
13
12
11
7
10
7
9
5
2
-3
-4
-5
-4
-7
-10
-12
-10
-11
-14
-17
-18
-16
-18
-19
-19
-19
-18
-22
-18
-19
-16
-15
-7
1
10
11
11
18
21
21
26
28
32
30
32
34
34
35
40
45
47
43
45
41
37
35
34
32
28
23
17
14
11
8
3
2
-1
-2
-3
-1
-1
-4
-9
-4
-4
-7
-4
-9
-9
-6
-8
-9
-9
-9
-11
-11
-10
-12
-12
-9
-9
-11
-8
-12
-15
-13
-14
-9
-2
-2
-1
6
9
9
8
7
5
4
2
1
-1
-5
-6
-3
-11
-12
-10
-6
-10
-15
-26
-45
-77
-111
-142
-162
-153
-133
-104
-74
-53
-28
-21
-11
-4
3
4
6
3
5
3
6
4
6
5
7
12
10
9
11
15
20
19
22
25
28
28
24
23
22
21
24
19
16
17
18
15
12
12
11
11
9
8
2
5
2
3
-1
-2
-1
2
-1
6
4
5
6
4
4
2
1
5
3
4
3
4
5
3
4
6
6
6
8
8
4
4
5
3
8
7
6
6
4
-1
-5
-4
-7
-4
-3
-1
7
6
9
8
7
13
12
10
11
12
8
8
-3
-5
-5
-4
-3
-7
-5
-6
-4
0
5
12
9
3
3
-1
2
-1
-7
-7
-9
-11
-10
-10
-6
-3
2
2
0
0
3
3
3
-5
-5
-11
-14
-16
-13
-16
-13
-14
-13
-10
-8
-13
-20
-36
-57
-84
-121
-146
-158
-149
-121
-90
-61
-41
-23
-10
-5
1
-1
2
0
0
2
3
3
-1
0
-5
-7
-6
-11
-12
-9
-6
-2
-1
-1
-3
2
1
-4
-6
-6
-5
-15
-15
-12
-12
-16
-16
-18
-17
-15
-15
-13
-17
-16
-13
-14
-16
-17
-15
-9
-7
-7
-11
-13
-11
-6
-1
1
3
13
17
20
25
28
31
31
33
36
41
43
44
46
46
43
42
41
39
37
33
32
26
31
26
26
24
20
15
14
15
11
11
6
7
6
7
5
3
4
1
1
4
-1
-4
-6
-9
-8
-9
-4
-6
-8
-9
-8
-9
-10
-15
-19
-18
-21
-25
-25
-33
-31
-32
-33
-37
-40
-36
-34
-32
-34
-30
-31
-36
-34
-33
-35
-34
-33
-37
-36
-38
-37
-41
-45
-38
-37
-35
-40
-50
-76
-102
-132
-172
-188
-187
-161
-131
-101
-80
-66
-52
-46
-37
-33
-30
-27
-24
-23
-20
-20
-18
-16
-21
-22
-21
-20
-17
-16
-15
-17
-17
-18
-14
-15
-11
-10
-9
-9
-10
-14
-17
-17
-19
-22
-27
-27
-26
-33
-36
-44
-47
-50
-52
-55
-58
-61
-61
-60
-62
-66
-68
-66
-60
-58
-53
-50
-51
-46
-49
-44
-40
-35
-33
-31
-25
-24
-20
-23
-20
-13
-14
-12
-17
-14
-15
-15
-12
-15
-9
-8
-2
4
-2
3
1
4
9
14
18
14
14
12
17
20
15
13
19
24
23
21
15
19
22
19
19
22
24
22
23
27
24
29
27
26
19
20
21
17
15
17
18
20
18
20
24
23
24
28
23
26
27
26
25
30
26
26
26
30
28
28
29
27
23
6
-17
-50
-83
-106
-104
-92
-60
-25
4
20
28
35
40
40
39
39
39
36
34
35
33
28
27
25
22
24
24
25
24
20
15
13
15
19
18
17
16
14
13
9
7
6
8
4
4
-2
-2
-7
-7
-7
-6
-8
-11
-12
-14
-13
-16
-14
-17
-18
-18
-15
-17
-15
-15
-13
-9
-10
-11
-8
-5
-3
5
7
12
15
19
20
22
24
23
23
22
23
20
22
20
19
19
18
16
15
14
15
14
13
13
14
18
24
27
27
23
19
21
19
17
18
19
18
20
22
19
19
18
14
16
14
13
12
14
9
13
23
26
32
36
33
33
33
27
25
22
24
22
22
24
23
26
27
29
28
26
28
25
24
24
24
24
26
28
30
22
7
-14
-40
-79
-110
-125
-122
-102
-72
-40
-15
3
15
26
32
35
35
37
34
33
33
32
36
33
32
30
28
24
21
18
18
19
16
17
15
16
9
8
7
2
-9
-2
-3
-4
-9
-10
-11
-16
-12
-20
-22
-24
-25
-28
-33
-34
-31
-32
-32
-35
-38
-36
-39
-38
-41
-36
-38
-38
-38
-36
-33
-30
-28
-25
-21
-22
-23
-18
-15
-15
-19
-10
-9
-8
-10
-10
-10
-9
-12
-12
-10
-11
-15
-17
-14
-18
-18
-19
-16
-16
-17
-15
-14
-17
-20
-18
-20
-20
-20
-23
-19
-18
-19
-19
-18
-14
-14
-18
-16
-16
-15
-17
-17
-15
-13
-13
-16
-15
-15
-17
-17
-18
-23
-21
-22
-20
-18
-16
-14
-8
-7
-6
-3
2
2
1
1
4
1
4
2
1
2
2
-1
-1
5
5
5
-7
-24
-48
-78
-106
-129
-135
-129
-104
-78
-47
-30
-14
-5
3
8
10
14
19
18
12
7
5
2
1
-3
-5
-2
3
1
6
9
6
7
3
3
3
1
4
-2
1
-9
-6
-12
-15
-17
-14
-19
-20
-23
-25
-29
-29
-32
-35
-37
-41
-45
-45
-48
-46
-44
-44
-45
-41
-45
-40
-40
-38
-32
-32
-25
-22
-20
-17
-8
-6
-2
-3
6
8
6
3
6
0
0
-3
-8
-9
-11
-4
-10
-12
-9
-11
-14
-10
-11
-10
-10
-10
-9
-8
-11
-8
-10
-9
-6
-2
-4
1
4
-1
0
-2
-2
-3
-7
-8
-15
-12
-16
-16
-18
-24
-21
-21
-18
-20
-23
-23
-24
-23
-17
-14
-14
-15
-22
-25
-28
-28
-27
-27
-25
-22
-18
-21
-20
-17
-16
-15
-13
-11
-14
-14
-12
-10
-12
-15
-16
-18
-13
-13
-11
-12
-16
-22
-40
-61
-95
-127
-151
-154
-140
-112
-80
-52
-34
-23
-14
-8
-5
-1
5
5
6
1
4
1
3
5
4
2
3
3
3
6
6
3
6
3
7
2
3
4
1
4
3
3
-2
-5
-8
-9
-3
-6
-9
-12
-14
-19
-18
-20
-25
-23
-21
-25
-24
-21
-23
-23
-22
-20
-24
-23
-19
-22
-19
-14
-13
-8
-7
-5
6
8
11
10
10
12
16
10
15
18
15
15
20
17
16
16
17
17
14
12
12
11
8
10
11
13
12
10
8
11
6
4
8
6
3
4
3
8
6
8
4
6
3
4
5
6
10
6
5
10
7
6
4
3
5
7
7
5
10
8
8
7
7
5
4
3
1
4
7
11
12
9
14
11
11
12
18
17
15
15
16
17
18
15
13
13
15
17
18
13
-3
-25
-52
-86
-115
-131
-128
-104
-68
-33
-7
12
23
28
37
34
37
37
39
40
37
35
37
35
40
37
36
34
28
23
23
27
26
28
23
21
20
13
12
13
15
8
7
4
6
2
2
-1
-5
-5
-4
-10
-13
-17
-15
-15
-15
-13
-14
-15
-12
-14
-15
-13
-14
-10
-12
-12
-10
-6
-6
-2
-1
3
8
10
11
16
16
14
14
16
16
17
16
12
11
12
13
11
12
9
9
8
8
5
0
-2
1
-2
-5
-3
-1
4
7
5
7
13
13
14
13
14
16
16
14
12
8
5
6
8
3
4
3
7
1
5
5
8
8
8
6
4
5
1
-3
-5
-4
-4
-3
-6
-9
-14
-13
-8
-8
-10
-8
-6
-6
-6
-4
-4
-3
-9
-11
-11
-11
-11
-13
-11
-11
-13
-12
-10
-7
-10
-20
-43
-69
-100
-132
-146
-148
-131
-101
-69
-41
-23
-13
0
2
7
8
9
9
9
12
12
9
8
1
1
3
2
1
-2
-1
-4
-3
-7
-6
-9
-11
-9
-13
-14
-16
-18
-20
-25
-23
-21
-26
-26
-26
-26
-27
-30
-31
-35
-35
-34
-38
-36
-37
-34
-34
-36
-38
-34
-38
-33
-36
-39
-32
-30
-31
-29
-26
-20
-19
-20
-16
-16
-12
-13
-12
-12
-13
-11
-13
-14
-12
-12
-14
-18
-23
-20
-21
-20
-25
-25
-25
-25
-22
-21
-26
-20
-24
-20
-20
-21
-18
-19
-16
-20
-18
-16
-18
-17
-15
-11
-16
-15
-12
-11
-14
-12
-14
-12
-10
-11
-11
-10
-7
-8
-7
-6
-3
-5
-6
-7
-4
-3
-7
-11
-14
-15
-12
-12
-14
-10
-6
-9
-7
-2
-3
-5
-2
-3
0
-2
-4
-3
1
-5
-2
-5
1
4
7
9
9
-4
-23
-49
-84
-111
-126
-122
-101
-75
-44
-18
0
13
17
19
19
20
23
26
24
23
19
22
17
15
13
13
14
14
10
10
8
4
3
6
6
-1
4
1
-2
-5
-5
-4
-4
-6
-9
-8
-10
-8
-10
-14
-17
-17
-17
-18
-18
-17
-17
-20
-19
-16
-12
-14
-11
-11
-13
-13
-10
-7
-9
-9
-4
0
1
1
5
7
9
12
13
16
14
13
13
14
13
14
16
16
16
12
13
12
14
13
12
8
6
0
-1
-2
-6
-6
-7
-5
-1
-3
-8
-10
-7
-10
-12
-11
-8
-11
-9
-9
-9
-7
-9
-6
-5
-6
-7
-4
-8
-6
-7
-5
-5
0
-3
2
-3
-7
-5
-5
-2
-1
-3
2
-1
-2
2
5
6
4
2
-1
-1
1
3
-3
-3
-3
-6
-6
-7
-5
-5
-7
-1
2
3
3
2
1
5
-1
0
3
-3
1
2
-1
2
7
5
1
-6
-26
-55
-89
-119
-131
-129
-102
-68
-36
-10
9
21
23
25
25
24
22
18
17
21
18
16
16
17
15
16
21
24
28
32
27
28
29
23
23
23
24
18
18
15
16
15
16
16
12
11
9
5
2
1
-2
-7
-4
-6
-8
-10
-9
-11
-14
-15
-13
-14
-16
-14
-11
-14
-17
-11
-14
-11
-11
-9
-7
-3
-2
-1
3
2
3
3
8
6
7
6
5
7
8
7
8
3
1
3
5
4
3
2
5
3
4
6
5
8
5
5
6
6
-1
3
2
3
3
3
5
1
2
0
0
-1
-6
-7
-10
-7
-8
-7
-5
-7
-8
-8
-13
-13
-11
-14
-15
-14
-15
-17
-19
-17
-18
-21
-17
-20
-14
-16
-18
-17
-19
-17
-17
-16
-17
-18
-16
-21
-23
-21
-19
-19
-17
-21
-21
-23
-17
-16
-15
-13
-10
-14
-9
-8
-9
-5
-7
-10
-9
-11
-13
-10
-13
-12
-9
-9
-7
-7
-17
-32
-52
-80
-113
-133
-135
-124
-95
-59
-29
-9
6
6
8
11
10
9
9
8
4
1
-1
3
0
0
-1
-3
-5
1
2
-4
-6
-6
-9
-7
-7
-8
-10
-7
-7
-10
-7
-13
-14
-15
-16
-21
-18
-18
-19
-19
-19
-21
-23
-25
-27
-26
-29
-31
-33
-28
-33
-32
-31
-32
-27
-28
-31
-27
-25
-24
-20
-20
-18
-14
-13
-11
-3
2
7
5
5
8
7
7
8
6
8
11
12
10
8
9
12
11
10
7
9
8
9
7
7
8
8
8
9
9
8
9
8
7
8
12
6
7
9
5
10
10
12
8
10
9
10
9
7
12
10
10
6
4
3
2
3
6
-2
2
0
1
2
0
0
-4
-3
-6
-7
-5
-4
-3
-3
-5
-5
-2
-4
-6
-11
-14
-15
-20
-20
-20
-19
-17
-11
-14
-16
-19
-20
-18
-13
-13
-12
-11
-10
-7
-7
-6
-11
-12
-11
-12
-10
-12
-22
-44
-73
-104
-131
-144
-140
-118
-82
-53
-32
-15
-6
2
6
5
10
9
7
8
9
10
4
3
7
8
12
6
6
7
8
9
8
10
7
7
7
9
10
9
8
7
8
4
1
4
2
-2
1
-1
4
2
4
-3
-6
-9
-9
-11
-13
-12
-15
-14
-17
-18
-18
-21
-22
-24
-28
-21
-22
-22
-16
-12
-13
-6
-4
-5
-1
1
7
11
11
13
11
10
7
4
-1
7
8
11
10
4
12
7
12
14
13
15
7
8
8
4
3
3
-4
-6
-10
-17
-19
-20
-19
-19
-17
-9
-4
7
14
26
31
39
44
48
44
47
48
42
39
30
25
23
17
20
19
14
15
12
9
3
4
4
-1
2
6
4
2
-4
-4
-4
-5
2
2
1
9
11
11
12
12
11
15
16
13
14
9
11
10
6
10
6
4
7
1
-1
1
0
-3
-21
-41
-70
-99
-126
-139
-132
-105
-73
-40
-19
-4
4
6
3
3
-1
-1
1
-5
-2
-3
-4
-5
-9
-8
-8
-12
-11
-12
-14
-12
-14
-14
-17
-15
-16
-17
-15
-20
-22
-25
-25
-25
-28
-26
-29
-27
-28
-33
-34
-32
-35
-36
-34
-35
-33
-34
-32
-38
-34
-36
-35
-34
-41
-37
-36
-38
-38
-35
-32
-31
-29
-27
-25
-21
-18
-12
-13
-11
-10
-8
-5
-2
-5
-4
-4
-8
-7
-5
-5
-7
-4
0
-2
2
-1
0
-3
-5
-3
-3
-3
-3
-4
-5
0
-1
-5
0
-5
-4
-5
-3
-3
-9
-5
-9
-8
-7
-4
-3
-6
-4
-4
-5
-4
-8
-6
-8
-6
-11
-8
-10
-8
-11
-10
-12
-8
-9
-11
-12
-11
-13
-15
-18
-18
-15
-16
-9
-11
-11
-10
-7
-3
-1
-5
-5
-4
-6
-5
-5
-5
-4
-4
-7
-5
-3
3
-1
-9
-25
-50
-74
-103
-128
-129
-116
-83
-52
-20
-3
10
11
20
15
16
16
9
10
12
12
8
11
11
11
11
7
10
8
10
5
6
6
1
6
6
6
3
2
3
0
-5
-4
-7
-2
-6
-6
-11
-10
-13
-11
-13
-14
-11
-12
-12
-12
-14
-18
-17
-17
-14
-17
-14
-17
-17
-17
-15
-15
-10
-7
-4
4
2
7
10
9
13
15
16
15
18
20
16
16
15
12
14
17
14
14
11
10
7
3
-1
3
2
1
-2
-2
-2
-4
-5
-8
-8
-7
-8
-6
-4
-6
-7
-7
-2
-4
-7
-9
-4
-5
-3
-4
-5
2
1
2
0
10
11
11
14
15
23
24
22
18
18
19
19
15
16
14
12
8
6
12
12
14
15
17
15
15
16
16
16
16
13
13
13
12
7
8
8
8
7
8
13
8
-4
-27
-56
-88
-111
-118
-102
-77
-40
-9
12
26
26
27
29
28
25
22
24
20
18
16
16
14
9
7
7
5
2
-2
-5
-6
-13
-13
-15
-14
-17
-17
-16
-17
-17
-16
-19
-21
-24
-25
-26
-29
-29
-30
-31
-33
-32
-34
-36
-39
-37
-36
-36
-35
-37
-33
-37
-34
-33
-33
-28
-29
-25
-20
-15
-16
-13
-8
-9
-5
-3
2
-1
4
3
4
3
6
3
6
6
8
8
9
9
6
-1
1
3
7
5
6
6
7
8
8
10
8
5
5
4
3
3
5
3
1
0
-1
1
2
-3
3
4
3
0
-2
0
-3
2
-3
-4
-2
-2
-4
-4
-5
-5
-4
-9
-11
-9
-9
-14
-17
-14
-15
-17
-12
-11
-13
-12
-10
-12
-13
-10
-12
-11
-9
-6
-13
-13
-12
-12
-15
-14
-16
-15
-15
-16
-24
-36
-56
-92
-120
-137
-145
-129
-99
-66
-34
-12
-3
4
8
8
9
5
7
10
7
12
7
7
7
4
8
4
6
5
3
1
4
5
-1
1
-4
-2
-1
-7
-2
-8
-7
-6
-9
-11
-13
-11
-12
-16
-17
-17
-21
-17
-18
-20
-18
-22
-19
-21
-20
-18
-21
-18
-20
-20
-18
-20
-21
-19
-15
-14
-9
-4
-5
-3
-3
2
4
7
8
11
12
7
11
9
9
16
14
12
15
10
7
11
8
9
7
6
7
12
7
12
8
7
12
12
16
18
16
23
19
22
19
24
24
21
22
22
24
22
19
16
19
18
19
18
21
18
18
17
12
11
5
4
-4
-4
-8
-9
-12
-14
-15
-18
-14
-15
-10
-11
-13
-13
-17
-17
-16
-16
-17
-15
-15
-11
-17
-20
-18
-21
-18
-22
-16
-18
-20
-32
-55
-85
-116
-140
-148
-137
-113
-78
-51
-32
-17
-8
-3
3
4
2
0
0
-4
-4
-5
-6
-7
-7
-9
-12
-12
-12
-9
-8
-13
-12
-14
-20
-20
-17
-19
-21
-18
-18
-16
-16
-13
-10
-9
-10
-11
-11
-10
-17
-15
-16
-17
-11
-13
-16
-18
-19
-17
-16
-14
-19
-18
-18
-17
-19
-21
-16
-15
-14
-7
-8
-8
-3
3
8
7
9
10
10
12
11
11
16
12
10
9
10
12
11
12
9
9
11
9
8
7
7
7
7
9
8
7
7
6
10
8
8
10
10
10
7
4
3
4
2
0
0
-2
-4
1
-1
-1
-4
3
3
9
10
9
4
0
-3
-4
-6
-5
-9
-6
-4
-6
-4
-1
5
13
16
14
15
13
15
11
8
8
7
6
10
12
14
12
17
15
15
18
18
17
13
6
-17
-40
-73
-95
-106
-99
-81
-45
-14
12
28
37
39
42
43
38
36
35
35
36
37
40
38
37
39
38
33
32
31
30
27
25
26
21
25
24
27
31
36
33
33
32
33
28
27
25
26
24
23
23
21
17
16
12
9
7
5
4
-1
-7
-6
-7
-6
-7
-4
-5
-7
-6
-8
-6
-9
-5
-4
-1
-2
-2
1
2
-3
-3
-8
-11
-10
-12
-4
-8
-10
-8
-9
-12
-11
-7
-10
-8
-6
-8
-10
-10
-11
-13
-9
-7
-13
-13
-16
-21
-22
-25
-25
-22
-28
-30
-33
-33
-37
-37
-37
-39
-41
-38
-41
-45
-41
-43
-40
-40
-42
-47
-50
-51
-51
-56
-58
-57
-52
-54
-55
-57
-61
-59
-56
-57
-52
-48
-46
-47
-41
-39
-41
-35
-36
-35
-29
-30
-26
-23
-23
-21
-22
-23
-20
-23
-18
-18
-26
-43
-72
-100
-131
-136
-135
-115
-84
-56
-32
-18
-4
4
12
14
15
12
12
17
13
18
17
13
13
17
17
15
15
18
17
14
10
11
13
14
9
7
7
8
7
7
6
10
8
14
9
8
9
7
4
7
6
1
7
3
-5
-3
-5
-4
-2
-4
-4
-1
1
-5
-3
-3
-1
2
4
-3
4
5
1
6
6
7
8
8
9
12
13
18
15
13
11
12
16
12
10
6
-1
-3
4
1
5
4
4
3
-3
-7
-7
-4
-1
-1
-4
-6
-5
-8
-11
-12
-14
-10
-12
-9
-11
-13
-16
-19
-17
-23
-29
-29
-28
-27
-26
-23
-21
-25
-28
-22
-22
-22
-26
-24
-31
-35
-35
-32
-31
-32
-34
-34
-32
-30
-34
-30
-29
-24
-20
-16
-19
-15
-11
-11
-14
-14
-13
-15
-16
-16
-16
-19
-19
-11
-7
-13
-16
-26
-45
-73
-107
-131
-136
-126
-104
-71
-45
-17
-4
8
9
8
7
10
9
14
14
15
16
17
18
16
20
16
15
13
17
16
17
15
11
9
11
11
14
14
11
6
8
4
3
0
-3
-2
-4
-5
-3
-3
-4
-6
-10
-9
-13
-17
-16
-18
-21
-21
-21
-24
-31
-31
-34
-36
-35
-36
-37
-36
-38
-34
-35
-31
-29
-30
-30
-25
-23
-19
-21
-16
-14
-9
-9
-5
-4
-3
-4
-1
2
-2
-3
-1
-2
1
-3
-7
-7
-9
-8
-5
-4
9
12
14
19
19
19
20
20
21
29
31
34
32
32
31
30
28
27
27
28
25
22
16
15
14
10
2
-2
2
-4
-11
-11
-10
-17
-16
-18
-23
-30
-33
-32
-37
-35
-39
-41
-43
-42
-40
-42
-38
-41
-38
-41
-37
-35
-33
-30
-28
-27
-26
-21
-15
-9
-9
-25
-45
-70
-99
-121
-129
-116
-84
-42
-12
12
26
33
37
35
36
30
23
22
18
14
6
-2
-6
-5
-4
-4
-8
-10
-9
-13
-17
-16
-14
-11
-10
-12
-13
-12
-8
-11
-9
-8
-8
-5
-4
-6
-4
-2
-4
0
-2
-2
3
3
6
6
5
4
-1
1
3
6
12
9
6
2
3
8
15
15
14
16
17
22
28
29
32
38
37
38
37
39
40
41
40
36
34
28
32
29
28
30
24
22
23
24
23
22
22
24
26
26
28
30
33
33
33
30
35
36
34
34
30
30
27
24
23
21
16
14
3
2
-4
-5
-9
-10
-8
-11
-14
-19
-20
-22
-18
-20
-22
-25
-29
-25
-31
-30
-28
-22
-17
-14
-13
-16
-16
-17
-17
-14
-10
-4
4
9
16
15
15
14
7
2
5
7
9
4
-14
-42
-76
-109
-136
-148
-141
-117
-82
-54
-32
-14
-4
10
19
22
29
27
30
30
29
32
30
33
32
30
27
29
28
20
10
6
7
8
8
7
3
4
9
10
13
9
6
0
-1
-3
-12
-20
-26
-32
-37
-37
-30
-29
-29
-29
-29
-26
-19
-24
-29
-28
-27
-20
-19
-20
-19
-13
-6
-3
3
8
10
11
14
16
21
26
26
34
38
37
35
36
32
29
34
36
36
31
34
34
32
23
19
22
21
19
15
9
14
12
12
11
9
9
11
14
11
6
7
4
3
7
7
8
11
12
14
12
9
8
11
12
12
12
8
7
9
13
13
5
4
5
3
3
3
1
-4
-5
-2
-7
-2
1
5
11
16
21
21
27
31
39
41
41
38
28
16
8
-4
-13
-23
-25
-25
-25
-29
-29
-25
-25
-35
-49
-73
-100
-142
-177
-195
-188
-167
-135
-104
-78
-57
-49
-42
-36
-31
-31
-33
-34
-33
-29
-27
-29
-30
-28
-33
-33
-34
-35
-41
-42
-42
-45
-46
-47
-51
-51
-53
-57
-56
-49
-48
-44
-45
-51
-53
-61
-70
-82
-104
-128
-152
-186
-231
-277
-329
-389
-440
-491
-535
-567
-590
-606
-626
-644
-673
-707
-748
-804
-844
-857
-866
-869
-874
-873
-874
-874
-872
-875
-873
-873
-875
-873
-872
-873
-873
-874
-874
-875
-875
-873
-839
-609
-249
158
536
823
968
1014
1040
1052
1057
1062
1063
1064
1064
1063
1066
1036
944
818
699
598
522
458
413
375
352
330
301
268
239
212
183
155
141
160
203
266
324
363
376
389
413
449
494
523
543
555
533
499
460
435
404
359
302
237
187
160
159
192
254
326
396
462
494
513
512
504
493
474
456
448
455
467
481
487
485
476
490
505
527
539
539
516
493
458
433
411
397
381
376
366
366
364
362
364
361
354
347
334
326
319
312
303
294
285
278
272
266
261
256
249
245
240
234
221
203
189
169
159
146
135
120
102
86
65
50
27
8
-13
-35
-51
-69
-82
-91
-93
-91
-90
-88
-92
-86
-85
-69
-57
-38
-32
-27
-24
-38
-48
-71
-90
-116
-135
-148
-168
-178
-191
-194
-202
-208
-211
-216
-226
-238
-249
-265
-276
-291
-298
-312
-322
-328
-337
-339
-343
-349
-349
-359
-363
-368
-366
-368
-361
-357
-352
-345
-338
-326
-317
-303
-283
-271
-253
-240
-225
-217
-203
-194
-181
-174
-170
-165
-161
-160
-157
-155
-153
-153
-157
-156
-164
-162
-169
-166
-163
-160
-151
-151
-144
-139
-134
-129
-128
-132
-143
-148
-159
-164
-169
-167
-157
-140
-131
-120
-119
-122
-124
-129
-153
-188
-232
-272
-297
-302
-291
-265
-233
-207
-195
-181
-173
-176
-170
-170
-155
-145
-127
-123
-117
-125
-132
-140
-147
-133
-104
-76
-37
14
59
115
166
209
248
262
267
264
256
245
236
228
226
226
221
224
217
209
198
189
183
172
166
167
165
164
161
156
151
142
130
111
99
77
66
56
38
31
22
14
10
4
-7
-19
-30
-42
-62
-79
-97
-115
-122
-137
-148
-154
-170
-183
-199
-209
-216
-226
-231
-237
-241
-237
-232
-229
-217
-208
-203
-188
-183
-173
-168
-157
-154
-146
-146
-137
-131
-128
-129
-123
-119
-122
-119
-115
-112
-110
-100
-102
-100
-98
-91
-89
-89
-82
-82
-84
-81
-83
-86
-85
-81
-84
-86
-85
-84
-87
-86
-85
-89
-88
-82
-78
-68
-58
-52
-40
-33
-25
-17
-11
-6
7
10
19
24
33
39
51
60
65
64
66
59
56
49
40
14
-23
-56
-100
-130
-156
-155
-144
-118
-91
-61
-36
-12
0
9
19
30
41
53
68
76
83
89
96
105
109
113
113
114
118
114
111
110
107
105
105
105
106
105
103
102
97
89
91
92
92
93
92
98
106
107
112
110
108
103
107
108
107
111
109
108
104
101
99
99
94
92
87
86
79
70
71
71
72
69
69
71
65
64
61
66
75
88
100
109
128
139
140
123
97
63
7
-80
-207
-363
-546
-730
-812
-847
-864
-871
-876
-878
-877
-877
-729
-401
3
421
710
825
855
713
307
-218
-591
-749
-822
-853
-866
-871
-874
-876
-804
-327
341
746
919
998
1030
1047
1051
1057
1059
1062
1060
1065
1064
1059
1062
1062
1059
1060
1062
1062
1062
1061
1061
1060
1062
1013
865
666
460
263
118
21
-33
-71
-93
-105
-113
-121
-148
-185
-221
-269
-306
-332
-349
-355
-375
-406
-441
-470
-505
-540
-569
-582
-581
-573
-564
-558
-562
-568
-581
-592
-612
-635
-653
-666
-668
-664
-646
-626
-607
-582
-565
-550
-529
-510
-490
-474
-455
-443
-440
-441
-452
-471
-492
-506
-507
-498
-486
-475
-453
-410
-373
-341
-318
-306
-302
-292
-282
-270
-260
-245
-222
-192
-151
-119
-105
-96
-102
-112
-128
-147
-167
-181
-197
-211
-223
-231
-236
-243
-251
-256
-264
-267
-265
-265
-262
-253
-246
-233
-229
-223
-225
-223
-221
-216
-212
-209
-198
-198
-192
-188
-186
-177
-173
-159
-146
-132
-121
-111
-102
-95
-87
-80
-68
-57
-49
-36
-28
-12
7
26
26
13
16
3
-16
-55
-114
-180
-221
-220
-174
-113
-47
-3
28
39
45
38
28
21
17
15
15
16
22
32
42
60
73
92
103
117
123
130
135
139
143
144
147
149
150
143
139
135
128
126
120
121
119
117
102
86
55
24
-5
-22
-15
4
41
70
91
105
111
116
108
105
95
87
85
81
76
72
67
62
53
49
48
41
41
39
38
38
35
34
36
33
33
32
35
36
36
32
33
28
25
23
20
16
14
7
10
8
9
6
9
7
7
8
7
9
13
14
16
20
21
25
33
39
46
50
58
57
62
65
68
70
72
71
71
71
77
83
89
90
87
88
87
77
75
78
73
71
65
64
59
56
49
46
39
36
36
32
32
32
28
24
24
17
20
17
17
14
16
16
16
17
16
18
14
14
14
15
21
23
30
28
26
31
34
33
37
42
39
42
45
46
52
49
52
51
49
51
49
47
42
39
40
41
39
35
31
32
31
35
34
33
32
31
30
17
-4
-34
-65
-94
-103
-92
-73
-43
-17
0
15
26
25
22
18
17
14
10
10
9
12
10
7
8
10
11
10
10
7
10
8
8
4
2
5
3
-1
-2
-3
-5
-7
-9
-11
-13
-13
-15
-16
-14
-17
-19
-18
-19
-17
-13
-12
-12
-12
-8
-6
-7
-7
-8
-6
-13
-14
-12
-15
-15
-13
-9
-5
-1
4
9
16
24
31
37
41
49
59
64
76
79
87
93
98
103
106
110
112
112
107
101
92
84
73
63
58
49
46
35
27
22
11
-7
-14
-13
-16
-18
-26
-29
-41
-41
-48
-53
-47
-42
-38
-29
-31
-27
-25
-23
-24
-20
-23
-23
-23
-18
-20
-18
-20
-19
-20
-18
-16
-14
-12
-13
-12
-12
-15
-17
-21
-20
-18
-20
-21
-24
-22
-24
-29
-30
-26
-31
-37
-34
-46
-61
-86
-116
-150
-178
-192
-189
-171
-148
-130
-110
-100
-90
-77
-70
-63
-55
-49
-45
-36
-30
-30
-29
-33
-35
-40
-48
-62
-64
-58
-59
-55
-56
-52
-50
-46
-43
-40
-46
-50
-44
-39
-31
-19
-4
20
43
61
82
108
120
134
144
148
150
150
143
135
130
124
115
108
99
92
85
80
71
64
58
52
42
34
35
27
22
22
18
16
12
10
3
2
1
-6
-6
-10
-15
-16
-24
-34
-38
-46
-53
-58
-57
-61
-60
-60
-63
-59
-64
-61
-58
-54
-45
-31
-16
-2
13
20
25
30
39
36
35
29
17
5
-6
-17
-33
-44
-55
-67
-72
-86
-92
-103
-116
-134
-150
-167
-184
-202
-221
-235
-238
-239
-233
-219
-202
-181
-156
-134
-116
-100
-86
-72
-58
-41
-28
-19
-6
5
9
17
23
28
28
19
5
-27
-55
-72
-72
-57
-22
13
43
79
112
148
193
251
308
362
408
434
431
385
312
223
132
57
5
-18
-13
8
32
60
82
91
103
103
106
110
105
100
93
87
77
72
71
68
63
60
54
57
59
60
60
52
43
39
33
28
17
7
3
-5
-12
-19
-21
-27
-34
-38
-43
-42
-44
-47
-45
-44
-46
-44
-47
-50
-52
-52
-50
-52
-53
-52
-52
-55
-58
-62
-70
-79
-90
-101
-110
-116
-121
-121
-120
-116
-109
-104
-100
-97
-90
-85
-79
-69
-64
-62
-57
-52
-50
-45
-40
-39
-40
-41
-37
-36
-36
-38
-39
-45
-50
-50
-48
-54
-58
-62
-66
-69
-60
-52
-45
-42
-32
-29
-34
-47
-65
-64
-63
-56
-48
-54
-68
-84
-99
-102
-108
-109
-112
-105
-97
-81
-60
-48
-47
-43
-29
-13
10
23
26
25
22
23
19
14
0
-33
-68
-104
-123
-128
-115
-90
-72
-61
-55
-54
-59
-66
-76
-86
-91
-94
-99
-96
-89
-82
-77
-64
-60
-51
-44
-36
-26
-17
-13
-13
-12
-16
-14
-13
-3
5
16
24
32
37
42
43
44
47
49
49
48
42
41
35
23
11
-11
-25
-45
-63
-68
-69
-67
-57
-47
-35
-20
-1
22
44
70
93
120
130
135
134
126
124
117
115
113
108
102
93
93
96
100
106
105
106
106
104
104
100
97
88
84
78
73
71
63
62
62
66
69
70
70
65
58
48
41
36
32
28
26
25
24
17
13
9
1
-7
-12
-20
-27
-32
-41
-47
-48
-52
-54
-56
-56
-63
-64
-64
-65
-62
-59
-51
-44
-41
-34
-29
-25
-24
-20
-21
-23
-21
-25
-28
-28
-29
-32
-28
-25
-26
-25
-28
-28
-28
-31
-26
-25
-19
-22
-24
-27
-24
-25
-29
-28
-29
-31
-40
-60
-86
-112
-129
-129
-110
-68
-26
11
48
71
93
114
133
154
172
192
207
216
222
219
214
202
183
166
144
124
108
86
64
48
35
24
12
-4
-25
-40
-48
-63
-76
-92
-101
-117
-128
-144
-170
-187
-208
-224
-236
-252
-262
-269
-274
-267
-260
-247
-233
-213
-191
-179
-159
-138
-120
-102
-80
-68
-51
-41
-40
-31
-30
-25
-21
-15
-16
-12
-10
3
20
44
61
80
102
118
130
132
135
139
144
144
147
147
148
144
135
128
117
99
83
58
21
-20
-70
-111
-131
-128
-107
-85
-56
-36
-15
5
32
53
66
76
85
91
89
80
70
57
45
34
24
13
9
10
12
23
39
64
92
124
151
184
213
238
258
271
280
276
268
259
246
216
188
156
128
109
104
88
65
25
-10
-47
-82
-115
-131
-141
-147
-162
-176
-181
-177
-168
-158
-149
-144
-145
-141
-142
-140
-148
-163
-182
-202
-219
-226
-213
-181
-146
-120
-100
-88
-83
-82
-84
-92
-95
-87
-73
-65
-59
-49
-36
-33
-28
-29
-30
-28
-24
-17
-9
-6
-2
6
10
12
19
23
30
33
33
35
38
44
50
55
60
58
54
39
32
17
6
-10
-15
-24
-27
-42
-46
-55
-50
-59
-59
-55
-54
-56
-52
-57
-49
-38
-30
-28
-22
-22
-29
-30
-35
-39
-44
-46
-52
-60
-66
-72
-80
-82
-87
-92
-96
-101
-109
-115
-127
-141
-145
-153
-154
-155
-156
-149
-134
-129
-119
-105
-90
-75
-58
-43
-36
-27
-21
-10
-6
4
12
23
39
57
88
103
113
115
122
127
123
131
127
129
125
127
122
122
117
116
111
107
103
111
110
117
117
121
119
125
134
146
164
180
187
198
200
203
202
196
188
186
180
173
159
152
139
128
115
98
85
61
40
18
3
-11
-18
-37
-53
-84
-108
-134
-142
-128
-96
-59
-20
9
28
34
32
22
10
-6
-18
-34
-47
-63
-71
-83
-90
-90
-94
-99
-100
-106
-111
-109
-115
-107
-106
-99
-94
-81
-72
-54
-49
-40
-42
-38
-35
-27
-18
-11
-12
-9
-16
-23
-36
-39
-48
-57
-63
-68
-74
-77
-84
-85
-93
-95
-103
-105
-116
-125
-133
-135
-143
-144
-146
-141
-140
-139
-132
-123
-114
-101
-92
-85
-80
-74
-70
-68
-66
-62
-64
-57
-49
-46
-38
-36
-32
-26
-30
-33
-32
-31
-35
-31
-31
-28
-28
-28
-27
-18
-17
-16
-10
0
4
7
13
18
21
20
19
28
32
33
38
37
43
47
48
46
42
44
43
42
41
34
29
31
27
28
23
19
15
13
11
11
14
13
14
15
19
15
11
12
7
5
3
3
-3
-8
-7
-10
-6
-8
-5
0
6
7
12
7
-13
-34
-69
-100
-124
-126
-110
-77
-40
-13
8
18
20
18
16
10
11
6
4
-1
0
-6
-6
-10
-15
-17
-19
-20
-26
-25
-24
-24
-24
-29
-25
-28
-28
-30
-35
-36
-34
-41
-39
-42
-41
-42
-46
-49
-52
-55
-55
-54
-55
-55
-49
-47
-35
-33
-21
-15
-4
5
15
29
35
52
65
77
89
102
112
119
121
128
127
131
130
131
122
121
112
110
102
95
90
87
80
76
70
68
57
55
48
40
38
30
22
14
3
-6
-15
-23
-33
-41
-47
-52
-60
-66
-67
-71
-66
-62
-61
-56
-55
-50
-41
-36
-30
-28
-25
-20
-21
-19
-15
-8
2
8
9
16
21
21
25
32
35
34
34
29
31
30
32
33
35
40
46
45
45
47
47
48
49
49
51
52
46
41
38
34
25
23
15
7
-3
-14
-36
-68
-109
-153
-188
-203
-196
-163
-127
-83
-54
-28
-13
1
12
20
24
32
34
38
39
40
41
39
40
39
42
40
40
37
38
36
37
38
36
34
32
30
33
36
35
38
42
46
49
49
55
56
60
59
54
52
46
40
32
25
16
12
2
-3
-13
-16
-16
-20
-23
-24
-24
-24
-22
-21
-22
-25
-20
-19
-18
-15
-19
-17
-22
-20
-23
-24
-23
-25
-20
-24
-19
-16
-19
-14
-14
-11
-2
1
13
18
21
24
19
19
16
16
12
7
3
-4
-7
-12
-21
-25
-28
-33
-34
-38
-43
-41
-49
-44
-48
-49
-49
-52
-50
-52
-49
-48
-50
-46
-49
-47
-49
-52
-48
-54
-57
-64
-66
-68
-76
-76
-78
-80
-75
-79
-73
-68
-67
-56
-56
-50
-43
-37
-26
-16
-15
-9
-7
-5
-4
-5
-5
-16
-33
-65
-92
-128
-151
-152
-137
-109
-72
-40
-15
-3
9
9
8
9
5
7
1
1
5
1
2
-5
-5
-4
-9
-8
-12
-10
-13
-9
-13
-13
-9
-11
-8
-7
-9
-3
0
7
10
14
25
23
30
27
30
30
25
22
16
11
9
8
1
-4
-8
-11
-14
-21
-25
-33
-34
-44
-42
-47
-47
-45
-38
-33
-28
-19
-13
-6
2
6
12
18
22
26
31
34
36
40
41
43
39
43
44
47
43
46
46
44
50
47
45
47
43
47
44
44
46
42
40
41
38
34
31
29
28
28
28
29
26
26
24
25
22
26
19
24
26
26
20
18
16
14
9
8
0
2
-3
0
-3
-3
2
-1
2
3
4
3
0
3
1
-1
-5
-5
-3
-4
-7
-9
-11
-10
-4
-4
-11
-22
-41
-70
-103
-130
-144
-132
-112
-78
-45
-20
0
7
12
10
10
7
6
2
-3
-4
-10
-16
-24
-24
-32
-38
-45
-53
-60
-66
-66
-74
-70
-76
-78
-76
-72
-69
-67
-62
-62
-55
-53
-49
-42
-39
-35
-28
-27
-23
-24
-17
-13
-11
-9
-8
-5
1
3
4
10
15
14
18
20
22
22
24
20
23
25
30
38
36
42
37
42
41
45
40
43
40
34
32
25
21
20
12
10
-1
0
-8
-6
-8
-12
-15
-16
-18
-16
-15
-16
-19
-16
-19
-24
-19
-23
-16
-18
-17
-19
-20
-28
-33
-41
-47
-52
-62
-62
-72
-81
-88
-100
-109
-121
-128
-132
-141
-141
-143
-141
-137
-127
-112
-102
-86
-76
-63
-49
-36
-26
-16
-13
-3
3
7
11
19
24
24
24
27
31
35
40
38
25
7
-20
-57
-91
-110
-109
-90
-60
-26
-3
16
29
38
42
52
59
62
62
68
68
71
71
70
67
68
66
61
57
53
46
39
34
25
15
5
-6
-12
-21
-25
-29
-34
-33
-34
-36
-34
-30
-26
-23
-19
-18
-15
-12
-5
4
8
10
10
11
14
16
15
13
12
6
5
5
3
6
8
10
13
15
15
16
23
24
24
29
30
27
30
27
27
31
28
26
25
25
24
28
21
17
18
16
15
13
13
10
6
4
-2
-1
-4
-1
2
-4
-6
-8
-7
-11
-18
-19
-19
-25
-27
-30
-33
-38
-37
-39
-46
-47
-51
-53
-54
-56
-63
-65
-65
-68
-63
-57
-49
-47
-43
-38
-35
-26
-25
-18
-14
-7
-7
1
5
16
16
18
20
26
25
24
6
-14
-46
-78
-106
-112
-100
-74
-38
-3
17
34
43
50
51
52
48
53
53
54
52
56
54
58
55
61
65
67
73
76
78
77
81
80
73
73
69
66
62
56
52
50
50
46
44
40
36
34
31
27
25
23
21
15
12
9
8
3
-1
-5
-5
-9
-12
-12
-19
-24
-24
-28
-31
-32
-30
-30
-33
-31
-33
-35
-41
-47
-55
-62
-71
-80
-95
-106
-120
-130
-130
-131
-129
-132
-131
-133
-136
-141
-139
-140
-145
-143
-137
-131
-122
-112
-100
-91
-75
-65
-52
-43
-25
-16
-4
6
15
23
29
32
41
39
47
48
56
58
65
71
76
76
77
75
79
77
88
91
98
103
105
108
104
104
100
96
90
84
80
76
70
69
64
62
57
58
57
60
57
49
30
8
-27
-54
-76
-75
-59
-32
1
26
43
60
64
70
67
67
69
66
59
59
54
50
50
43
42
35
34
28
27
22
16
13
8
9
2
-2
-7
-12
-15
-23
-22
-28
-34
-39
-41
-49
-48
-57
-51
-53
-56
-57
-66
-61
-64
-66
-66
-67
-68
-66
-65
-65
-66
-68
-64
-67
-65
-63
-57
-58
-57
-53
-49
-49
-42
-39
-34
-30
-32
-30
-28
-27
-25
-21
-21
-22
-21
-20
-20
-20
-16
-20
-18
-22
-20
-24
-20
-20
-18
-17
-19
-12
-14
-13
-13
-9
-9
-4
-4
-6
-6
-6
-7
-4
-7
-6
-9
-6
-7
-9
-8
-7
-13
-8
-8
-10
-12
-12
-13
-16
-19
-19
-14
-15
-16
-12
-12
-12
-7
-4
-6
-5
0
-3
0
4
-1
2
1
4
3
1
-3
4
7
8
2
-12
-34
-63
-99
-125
-133
-128
-109
-78
-54
-31
-13
-9
0
6
11
9
7
9
7
4
1
-4
-2
-7
-7
-5
1
4
3
3
3
3
1
-2
-2
-4
1
1
3
6
1
2
3
1
-4
-9
-7
-5
3
1
5
7
4
2
4
-5
-4
-3
0
0
4
4
3
1
-7
-13
-20
-30
-32
-37
-35
-32
-33
-32
-21
-13
-7
-4
-1
5
5
-1
-5
-10
-13
-18
-22
-24
-25
-25
-29
-31
-31
-26
-28
-31
-25
-22
-17
-16
-11
-8
-8
-9
0
1
2
4
3
-3
-3
-2
-4
-5
-3
-4
-5
-2
-5
-10
-12
-16
-21
-14
-20
-20
-19
-22
-20
-20
-22
-22
-18
-17
-16
-16
-15
-17
-17
-17
-19
-22
-19
-23
-27
-25
-24
-25
-24
-23
-26
-29
-24
-28
-33
-32
-33
-35
-37
-37
-33
-34
-32
-30
-25
-20
-17
-16
-16
-24
-50
-77
-106
-137
-147
-143
-123
-90
-59
-32
-13
-3
8
12
12
15
13
16
14
13
14
16
15
24
19
23
18
22
28
32
28
27
30
27
25
28
25
24
26
22
20
17
16
15
14
14
16
11
12
10
7
1
-4
-4
-2
-5
-9
-5
-4
-6
-5
-7
-9
-9
-12
-9
-5
-1
3
8
10
11
12
16
24
24
25
28
27
29
29
31
30
29
23
20
17
12
9
6
3
-5
0
-5
-9
-13
-20
-22
-25
-27
-27
-27
-29
-34
-33
-36
-37
-35
-37
-37
-36
-37
-35
-39
-40
-42
-43
-42
-40
-42
-39
-38
-39
-42
-43
-41
-42
-44
-39
-37
-33
-31
-29
-28
-29
-27
-22
-22
-15
-10
-9
-7
-9
-5
2
4
7
11
14
21
21
33
38
43
48
51
59
69
80
90
101
108
123
138
148
152
149
147
146
141
133
126
108
83
49
10
-25
-43
-45
-31
-5
18
23
22
14
6
-9
-23
-38
-47
-48
-53
-64
-74
-78
-78
-85
-79
-73
-59
-46
-27
-11
10
31
60
90
113
125
125
126
130
136
138
141
145
150
155
158
162
167
174
172
174
169
168
164
160
148
141
132
115
102
89
78
64
47
28
7
-12
-32
-54
-75
-100
-119
-140
-165
-193
-223
-247
-263
-270
-270
-267
-261
-249
-234
-224
-217
-208
-205
-195
-185
-173
-161
-148
-134
-125
-110
-99
-91
-79
-71
-64
-49
-36
-18
4
27
55
81
103
124
135
143
143
143
137
127
123
122
117
119
120
123
134
142
153
158
168
160
149
139
123
108
96
80
68
52
37
14
2
-12
-25
-34
-45
-56
-67
-83
-93
-105
-113
-118
-126
-128
-125
-125
-120
-111
-99
-94
-90
-87
-81
-77
-74
-69
-72
-70
-73
-75
-75
-74
-77
-84
-87
-90
-87
-84
-87
-87
-85
-89
-89
-89
-90
-92
-100
-126
-154
-186
-218
-233
-227
-201
-169
-138
-115
-96
-85
-80
-75
-71
-70
-67
-62
-59
-56
-57
-52
-47
-42
-39
-38
-34
-27
-23
-22
-15
-13
-6
-1
2
6
11
14
10
12
8
8
7
7
8
10
9
7
9
16
17
25
28
31
32
29
33
34
30
37
37
37
37
31
32
29
26
25
24
23
34
37
43
40
39
35
34
37
39
41
40
37
32
27
25
22
19
14
12
7
-3
-1
-3
-8
-11
-9
-14
-16
-13
-9
-6
-2
-5
-5
-8
-10
-7
-10
-8
-13
-9
-9
-10
-14
-12
-10
-6
-6
-8
-9
-3
-2
3
3
7
8
11
10
12
14
11
11
7
7
7
12
16
14
16
12
16
13
13
19
18
17
14
16
20
21
21
19
20
18
18
20
21
21
23
22
23
24
22
22
24
26
25
27
25
28
25
23
22
20
21
15
20
19
22
25
30
28
25
27
28
19
19
22
19
14
14
15
18
18
14
13
11
9
1
2
-1
-3
-2
0
-7
-9
-10
-9
-1
5
7
5
8
8
12
12
16
11
10
10
12
11
9
14
13
15
12
11
12
13
9
8
3
2
1
8
8
6
-5
-28
-59
-97
-132
-147
-148
-127
-88
-53
-29
-10
5
11
11
18
16
12
8
7
5
4
6
2
-1
-8
-9
-9
-7
-8
-5
-7
-10
-16
-19
-18
-21
-20
-18
-19
-22
-19
-24
-25
-28
-25
-27
-30
-31
-34
-42
-40
-42
-46
-44
-42
-46
-46
-50
-48
-45
-50
-57
-57
-56
-55
-54
-49
-51
-48
-49
-50
-45
-42
-36
-34
-28
-20
-14
-7
-2
2
3
7
10
12
7
9
11
11
16
16
15
12
15
7
8
13
12
9
6
8
9
6
9
11
12
10
9
9
7
7
13
18
15
15
13
16
16
16
13
10
13
12
14
13
12
11
13
10
7
3
6
8
12
7
8
5
5
5
7
5
6
4
7
4
2
-4
-3
-1
4
1
6
3
5
5
4
1
4
4
1
-1
-1
-5
-4
-8
-6
-6
-13
-13
-19
-24
-29
-34
-36
-34
-34
-34
-36
-37
-37
-36
-35
-33
-29
-24
-22
-19
-15
-12
-13
-13
-10
-6
1
3
12
19
26
28
31
38
43
48
48
55
62
68
71
77
88
83
84
84
87
87
91
91
93
101
108
114
120
121
121
118
115
117
123
132
131
122
116
103
96
84
74
61
41
25
5
-11
-25
-40
-48
-55
-64
-71
-76
-78
-85
-90
-97
-112
-145
-185
-228
-262
-275
-270
-247
-215
-187
-165
-148
-137
-132
-132
-130
-133
-135
-130
-124
-121
-118
-109
-96
-90
-76
-67
-54
-48
-34
-29
-18
-14
-12
-14
-17
-17
-19
-19
-23
-29
-35
-44
-44
-50
-52
-52
-56
-54
-53
-52
-51
-46
-39
-29
-29
-25
-20
-15
-10
-6
-7
-2
0
-1
-2
-11
-15
-9
-9
-9
-6
2
5
12
18
21
29
40
42
39
40
37
38
31
25
14
7
6
-7
-17
-20
-29
-37
-45
-50
-51
-53
-57
-51
-51
-48
-52
-55
-54
-55
-52
-57
-55
-53
-54
-61
-65
-68
-74
-77
-79
-79
-79
-83
-86
-98
-108
-115
-121
-120
-123
-122
-118
-115
-117
-112
-108
-106
-104
-101
-100
-102
-105
-96
-90
-88
-88
-84
-81
-77
-74
-68
-65
-61
-56
-53
-50
-47
-44
-45
-38
-31
-21
-20
-18
-17
-14
-11
-5
6
12
13
17
24
30
40
43
42
41
43
44
50
57
57
59
58
63
57
62
69
72
72
71
71
75
74
75
74
72
71
70
72
72
71
67
71
69
64
66
63
60
55
54
46
44
43
43
48
52
59
59
62
62
65
69
73
74
75
76
78
76
68
64
64
64
60
55
48
46
40
38
31
28
23
20
18
14
11
7
6
4
2
3
5
8
3
-10
-32
-58
-92
-125
-143
-143
-126
-91
-53
-19
12
28
34
37
47
49
52
51
57
62
62
60
61
56
57
57
51
47
44
42
41
35
30
29
26
25
21
25
21
18
16
15
17
15
16
13
8
10
7
1
-3
0
-8
-8
-9
-9
-6
-10
-9
-5
-7
-2
1
2
-1
-2
1
5
3
4
7
10
12
18
23
31
32
36
42
45
44
44
47
53
52
54
54
57
61
63
65
63
61
64
62
62
62
60
56
52
47
37
34
26
20
10
4
-8
-22
-23
-33
-35
-40
-43
-45
-49
-47
-50
-52
-57
-58
-57
-59
-58
-60
-63
-66
-65
-68
-68
-68
-66
-64
-56
-54
-44
-34
-25
-15
-7
-1
3
1
6
3
3
3
4
6
10
7
7
1
1
-3
-8
-13
-16
-20
-13
-17
-16
-20
-20
-24
-24
-23
-25
-25
-26
-28
-33
-36
-38
-40
-41
-49
-51
-51
-49
-47
-50
-50
-49
-47
-50
-47
-44
-45
-40
-37
-31
-25
-29
-28
-33
-35
-36
-34
-41
-42
-39
-42
-48
-57
-58
-61
-62
-74
-75
-77
-82
-88
-90
-91
-93
-87
-79
-75
-76
-85
-110
-139
-172
-196
-200
-189
-157
-123
-84
-59
-35
-20
-10
-1
8
11
18
19
22
22
28
31
33
35
36
35
41
39
40
41
40
39
46
44
42
43
45
44
45
41
43
41
41
38
35
32
28
27
19
15
17
11
8
4
3
-3
-5
-10
-8
-8
-10
-14
-13
-12
-15
-15
-11
-13
-13
-7
-5
-2
2
3
5
12
10
12
14
17
19
20
14
16
15
16
14
10
7
8
6
2
1
0
0
0
-2
-3
-4
-6
-3
-4
-4
-3
-5
-1
5
3
7
13
12
15
17
17
20
16
16
18
16
18
20
24
23
24
28
25
26
23
24
22
20
20
17
16
16
19
22
25
26
28
27
31
29
32
35
34
35
36
38
38
41
39
42
44
46
42
43
47
48
48
47
50
52
51
51
52
50
52
47
53
50
55
55
57
56
55
54
53
54
53
53
53
53
52
50
46
41
43
44
46
45
43
45
48
42
40
38
37
33
32
29
28
28
26
23
22
18
20
21
22
14
4
-20
-51
-88
-122
-141
-143
-127
-100
-69
-44
-22
-11
-4
-2
3
4
4
-3
-8
-10
-13
-19
-18
-19
-22
-28
-32
-34
-32
-30
-31
-35
-37
-43
-43
-47
-49
-54
-61
-62
-68
-73
-77
-83
-85
-86
-91
-95
-95
-94
-97
-98
-102
-108
-109
-109
-108
-113
-113
-115
-117
-119
-119
-115
-111
-109
-105
-101
-101
-96
-91
-87
-84
-76
-71
-69
-60
-55
-48
-45
-41
-40
-37
-32
-27
-27
-26
-24
-23
-25
-25
-25
-19
-17
-18
-20
-18
-17
-13
-19
-17
-20
-21
-29
-28
-33
-40
-43
-47
-49
-53
-55
-55
-54
-57
-57
-51
-50
-40
-30
-21
-13
-8
-4
-1
-4
-6
-12
-16
-25
-26
-31
-34
-38
-44
-48
-49
-48
-53
-52
-55
-51
-48
-40
-36
-35
-35
-29
-25
-21
-21
-22
-23
-22
-21
-13
-15
-19
-19
-18
-17
-19
-15
-15
-13
-9
-9
-16
-15
-16
-17
-14
-15
-15
-13
-9
-6
-6
4
8
15
19
26
29
35
37
41
44
45
46
51
55
58
63
63
66
67
71
72
67
56
36
5
-27
-60
-76
-70
-51
-14
17
40
60
70
75
76
74
69
66
62
59
58
57
49
46
48
41
41
36
37
35
34
29
30
28
26
24
25
22
20
11
14
8
5
3
2
-2
-5
-4
-5
-4
-4
-4
-2
-2
-1
0
6
2
-2
-2
-3
-7
-8
-6
-8
-7
-2
-2
5
11
17
25
33
37
40
41
39
41
39
37
31
31
31
28
29
28
26
26
18
23
25
22
23
26
24
23
27
26
26
29
30
32
37
42
44
45
45
44
48
52
48
46
43
37
33
29
27
23
22
22
20
20
24
18
13
12
5
1
1
-4
-4
-9
-9
-10
-15
-16
-21
-22
-22
-21
-24
-27
-33
-32
-35
-41
-41
-43
-42
-44
-41
-42
-46
-45
-40
-42
-38
-44
-40
-37
-36
-35
-29
-29
-28
-31
-29
-33
-29
-33
-38
-41
-45
-49
-50
-47
-48
-49
-46
-44
-48
-56
-75
-104
-140
-171
-190
-187
-165
-125
-85
-52
-30
-16
-3
4
5
1
2
7
8
5
1
1
5
3
4
-3
-4
-2
-4
-6
-7
-3
-5
-9
-10
-12
-10
-12
-19
-21
-22
-25
-24
-31
-32
-36
-41
-42
-49
-57
-62
-71
-73
-80
-86
-85
-87
-87
-88
-89
-87
-88
-87
-90
-92
-98
-103
-106
-121
-125
-125
-127
-125
-134
-131
-125
-119
-114
-106
-104
-95
-88
-79
-75
-66
-56
-58
-54
-52
-54
-52
-44
-30
-21
-9
1
16
23
32
38
47
55
62
64
67
77
84
87
91
96
105
111
112
118
117
120
124
129
131
131
128
128
129
125
123
120
113
108
105
100
92
87
77
67
63
55
49
40
34
25
20
11
5
-2
-4
-9
-11
-12
-16
-16
-19
-18
-17
-10
-7
3
10
13
20
23
33
35
42
40
41
46
48
55
53
51
51
51
52
48
46
39
30
12
-17
-53
-90
-123
-131
-125
-107
-74
-44
-24
-3
7
21
28
34
34
39
39
44
42
44
42
42
44
46
41
39
41
45
40
39
38
37
35
34
32
31
33
29
28
26
23
22
26
22
25
19
20
20
14
8
4
1
-4
-7
-13
-12
-11
-14
-16
-19
-20
-20
-16
-20
-21
-24
-26
-29
-31
-29
-30
-29
-33
-31
-31
-30
-30
-33
-30
-31
-31
-29
-29
-30
-30
-30
-22
-21
-20
-20
-25
-23
-20
-15
-14
-19
-19
-25
-26
-29
-31
-31
-37
-39
-43
-43
-43
-48
-53
-52
-53
-54
-49
-49
-51
-51
-46
-48
-49
-45
-42
-36
-37
-33
-30
-24
-22
-14
-10
-4
5
14
23
37
46
63
78
95
108
121
126
134
139
137
137
140
135
134
125
126
119
113
110
106
108
101
99
91
88
81
78
74
73
70
68
62
58
55
49
44
34
28
8
-22
-64
-109
-146
-182
-204
-206
-188
-171
-149
-133
-119
-114
-109
-104
-113
-122
-129
-140
-147
-152
-160
-163
-168
-163
-162
-165
-164
-160
-157
-146
-140
-125
-113
-97
-88
-74
-55
-41
-24
-7
14
35
60
88
111
122
115
93
71
55
41
26
19
16
11
7
7
-3
-11
-19
-28
-39
-51
-61
-73
-69
-71
-74
-74
-76
-73
-75
-83
-93
-100
-118
-131
-144
-159
-175
-192
-199
-209
-215
-224
-228
-230
-225
-221
-215
-207
-198
-182
-175
-162
-155
-139
-119
-110
-103
-89
-74
-56
-40
-28
-12
8
18
29
45
52
64
77
87
92
101
107
114
116
117
117
119
119
114
114
115
116
109
105
101
100
98
90
85
74
70
58
49
42
26
22
9
4
-11
-19
-25
-32
-36
-45
-44
-41
-38
-33
-27
-20
-10
-3
9
15
23
34
39
48
53
63
75
89
99
105
109
124
129
140
140
133
114
89
49
9
-16
-27
-22
-8
8
18
20
19
14
10
2
-4
-11
-12
-18
-18
-20
-29
-26
-21
-20
-19
-17
-14
-13
-7
-4
-4
-5
1
4
4
10
12
14
20
27
38
46
56
66
70
73
71
63
59
56
50
46
38
34
23
20
9
5
-2
-3
-6
-8
-10
-10
-12
-12
-17
-12
-10
-1
3
9
20
28
37
48
53
61
64
69
72
74
77
78
82
77
77
70
67
64
60
54
49
41
36
30
30
20
18
12
8
5
-4
-9
-14
-19
-23
-25
-29
-33
-31
-35
-40
-43
-39
-43
-44
-47
-42
-44
-39
-37
-34
-32
-30
-26
-26
-24
-25
-22
-20
-21
-19
-16
-17
-17
-13
-8
-10
-7
-6
0
-2
-7
-10
-15
-19
-25
-29
-34
-36
-39
-40
-42
-44
-49
-51
-52
-53
-53
-48
-48
-49
-46
-45
-38
-34
-24
-6
14
30
40
46
55
62
66
70
66
61
48
22
-5
-33
-34
-17
13
52
89
117
135
150
158
157
151
144
137
126
113
99
85
72
55
37
28
21
16
12
6
3
1
0
-8
-14
-25
-30
-34
-44
-50
-55
-60
-62
-65
-69
-70
-72
-79
-88
-96
-102
-105
-105
-107
-107
-113
-111
-112
-106
-110
-107
-109
-106
-111
-113
-113
-113
-118
-119
-123
-124
-127
-127
-128
-128
-132
-131
-133
-137
-137
-141
-138
-143
-140
-144
-143
-140
-141
-139
-137
-139
-134
-127
-126
-120
-114
-108
-106
-100
-102
-99
-101
-96
-94
-95
-96
-97
-87
-80
-75
-64
-57
-45
-33
-25
-15
-3
6
10
15
19
20
25
29
30
29
30
29
32
31
30
27
25
25
21
24
23
21
19
16
16
17
14
16
14
12
15
10
10
11
9
6
6
0
-3
-8
-16
-23
-31
-40
-48
-53
-58
-59
-58
-60
-56
-53
-46
-42
-37
-20
-6
7
18
18
9
-4
-20
-43
-51
-39
-13
28
73
109
137
155
164
168
167
163
163
160
153
150
146
148
142
139
140
145
148
154
159
163
162
166
161
160
154
147
134
127
118
112
100
89
74
60
49
34
17
4
-17
-31
-51
-69
-84
-104
-115
-130
-138
-146
-149
-148
-140
-131
-129
-123
-120
-115
-109
-107
-107
-105
-102
-90
-80
-70
-66
-58
-50
-48
-54
-57
-58
-55
-53
-49
-45
-36
-30
-35
-42
-48
-45
-45
-36
-39
-32
-22
-18
-16
-13
-9
-3
8
15
18
18
15
14
12
14
15
22
28
35
30
31
32
27
22
18
13
8
3
-1
3
6
14
22
24
23
22
25
24
23
20
20
21
24
26
26
26
24
19
13
4
2
4
0
0
0
3
5
8
7
9
11
7
12
11
9
6
8
7
7
6
11
9
6
1
-2
4
7
9
-8
-29
-63
-101
-136
-155
-162
-145
-114
-77
-45
-22
-4
12
21
24
25
30
36
42
44
51
57
63
66
63
62
69
76
72
72
73
70
72
67
65
59
64
64
65
66
65
59
56
55
41
29
12
-3
-12
-18
-25
-27
-20
-20
-21
-25
-24
-25
-24
-28
-34
-39
-40
-42
-48
-48
-49
-47
-50
-48
-48
-47
-49
-50
-51
-53
-48
-47
-47
-63
-78
-92
-105
-118
-122
-138
-147
-152
-156
-168
-173
-176
-175
-174
-177
-184
-185
-193
-210
-229
-248
-265
-272
-279
-283
-279
-258
-226
-187
-148
-100
-62
-19
23
64
92
116
134
140
146
152
179
225
287
350
409
464
505
531
544
543
538
522
492
453
416
371
333
301
274
248
224
198
183
169
158
151
139
128
114
100
90
75
66
52
46
45
46
45
40
35
36
40
37
37
40
48
57
62
61
54
32
1
-34
-69
-93
-96
-77
-46
-14
10
25
36
43
52
56
57
59
55
50
38
32
20
15
8
5
-8
-11
-13
-17
-19
-21
-25
-32
-45
-52
-61
-67
-72
-76
-80
-76
-66
-57
-52
-40
-37
-27
-22
-15
-10
0
5
12
20
29
39
46
58
64
76
102
126
148
167
206
243
283
308
312
306
296
272
250
237
225
213
206
191
181
171
159
144
128
98
62
20
-23
-64
-105
-139
-164
-180
-197
-213
-229
-252
-264
-272
-280
-288
-299
-309
-321
-334
-341
-347
-354
-359
-356
-350
-343
-331
-320
-308
-300
-290
-279
-271
-263
-256
-251
-247
-245
-240
-232
-222
-217
-208
-203
-189
-180
-175
-168
-167
-163
-153
-149
-144
-134
-132
-128
-128
-126
-129
-137
-144
-155
-171
-185
-197
-207
-208
-197
-175
-145
-100
-46
9
54
80
88
76
47
14
-22
-53
-86
-112
-124
-123
-98
-70
-32
8
37
48
23
-17
-74
-122
-156
-169
-163
-142
-126
-116
-107
-101
-95
-90
-85
-90
-96
-103
-119
-136
-163
-195
-226
-254
-280
-300
-312
-310
-290
-259
-217
-168
-117
-71
-26
10
36
53
66
71
76
75
73
70
63
62
57
52
44
46
48
43
42
41
41
48
47
48
49
54
59
60
62
55
52
49
44
38
33
32
34
35
33
33
36
38
44
46
46
47
53
56
56
60
64
76
95
116
120
102
75
42
5
-30
-54
-69
-78
-79
-76
-73
-68
-63
-54
-51
-45
-41
-35
-31
-26
-25
-20
-23
-17
-16
-9
-3
6
13
23
36
47
67
91
114
138
164
190
218
242
260
267
257
228
185
155
140
131
124
133
140
150
156
156
152
139
130
128
125
125
126
119
117
115
115
115
110
107
92
83
73
62
51
40
34
23
16
9
2
-5
-12
-21
-31
-38
-42
-46
-48
-56
-72
-90
-117
-148
-180
-190
-181
-145
-96
-45
0
38
65
77
94
98
96
102
104
99
98
99
98
96
97
95
91
89
84
77
68
59
55
46
43
30
17
10
-1
-6
-20
-28
-35
-44
-51
-65
-68
-74
-83
-89
-92
-97
-101
-101
-99
-98
-98
-98
-98
-98
-103
-103
-103
-109
-108
-110
-112
-111
-107
-105
-102
-101
-94
-88
-86
-89
-81
-76
-65
-49
-30
-16
2
11
20
26
22
22
18
12
10
16
23
25
25
21
19
22
23
23
16
16
8
5
4
-5
-7
-12
-14
-15
-23
-16
-14
-6
1
17
28
42
51
63
68
76
83
85
89
88
86
90
86
84
84
81
74
70
66
58
53
47
39
31
17
7
-3
-15
-24
-36
-49
-55
-60
-69
-74
-78
-82
-85
-83
-81
-71
-63
-54
-49
-47
-54
-52
-61
-63
-73
-81
-99
-111
-108
-94
-76
-60
-41
-31
-18
-7
2
14
12
1
-21
-52
-75
-87
-91
-67
-36
-6
19
41
51
55
56
47
43
36
35
31
30
26
23
13
8
-2
-18
-30
-36
-49
-61
-70
-87
-94
-102
-107
-110
-119
-127
-131
-133
-139
-141
-152
-153
-149
-143
-135
-125
-120
-111
-106
-104
-103
-96
-95
-89
-80
-74
-69
-70
-67
-66
-66
-63
-68
-68
-67
-68
-66
-59
-59
-52
-45
-36
-28
-18
-6
6
17
32
38
48
54
65
80
91
98
103
99
94
80
67
57
51
48
57
66
79
86
90
94
102
113
125
152
182
215
244
267
283
288
286
276
257
237
219
202
182
166
151
131
111
96
83
76
72
74
83
93
98
101
103
111
116
116
110
106
110
111
111
121
129
131
135
143
145
147
146
144
137
133
122
105
86
63
44
21
-2
-25
-39
-47
-55
-57
-56
-56
-50
-39
-33
-25
-17
-8
-8
-9
-10
-12
-16
-18
-20
-24
-25
-20
-15
-6
12
26
38
38
31
14
-15
-41
-54
-45
-16
25
68
105
141
167
185
187
174
169
179
201
228
250
269
280
276
263
258
241
220
191
173
154
144
136
130
120
130
161
197
230
260
294
330
332
238
0
-311
-521
-531
-315
54
474
779
914
972
997
1012
1015
1020
1022
1022
1022
1023
1022
1025
1018
1002
978
948
909
870
835
816
805
785
763
701
589
428
227
-3
-241
-477
-697
-819
-872
-900
-910
-909
-913
-915
-917
-916
-915
-919
-916
-917
-919
-917
-918
-921
-917
-920
-918
-919
-919
-919
-917
-915
-919
-917
-919
-919
-919
-916
-913
-880
-844
-823
-818
-830
-843
-843
-823
-776
-723
-661
-599
-549
-518
-498
-451
-396
-319
-242
-167
-97
-25
40
89
126
154
168
161
125
30
-112
-202
-217
-200
-174
-142
-85
29
109
65
-52
-120
-100
-25
100
221
279
280
230
162
103
59
28
-3
-24
-46
-59
-66
-60
-46
-29
-22
-23
-19
-2
21
57
93
126
153
178
201
238
276
332
410
491
581
659
712
746
757
750
723
694
673
668
666
656
636
611
590
568
542
526
521
508
488
479
483
515
555
593
623
640
636
626
615
599
581
554
528
495
456
411
361
306
236
165
95
32
-30
-88
-135
-177
-216
-248
-274
-285
-293
-290
-292
-280
-269
-256
-237
-221
-207
-186
-171
-156
-144
-139
-135
-126
-120
-113
-99
-88
-79
-72
-69
-60
-55
-50
-44
-47
-43
-42
-47
-44
-48
-56
-65
-78
-94
-116
-144
-179
-207
-246
-288
-334
-382
-423
-464
-501
-531
-565
-593
-605
-604
-585
-557
-522
-492
-470
-465
-472
-498
-534
-574
-610
-633
-641
-639
-632
-614
-588
-549
-496
-453
-438
-460
-500
-556
-598
-609
-590
-545
-494
-446
-411
-382
-370
-359
-354
-340
-323
-295
-253
-203
-148
-95
-42
4
47
96
142
189
230
272
312
354
399
447
501
550
595
640
687
731
775
808
839
866
875
871
849
812
768
717
675
647
641
660
683
710
728
737
743
738
730
711
692
661
626
587
544
497
449
402
354
303
252
194
139
81
19
-38
-90
-136
-176
-213
-245
-274
-304
-334
-357
-368
-368
-362
-346
-318
-270
-209
-133
-53
28
96
128
132
127
113
111
118
129
128
117
95
80
54
26
1
-23
-42
-59
-73
-91
-107
-117
-127
-137
-137
-133
-126
-118
-110
-98
-88
-80
-72
-67
-58
-49
-36
-24
-6
14
26
43
51
61
73
79
86
96
103
107
111
110
109
108
109
111
116
111
108
99
90
82
71
63
56
43
40
31
25
14
7
8
6
1
-1
-8
-7
-8
-8
-15
-26
-36
-49
-62
-79
-92
-105
-114
-127
-140
-150
-158
-168
-173
-167
-161
-146
-138
-137
-147
-164
-187
-206
-223
-233
-235
-236
-234
-230
-227
-218
-208
-199
-191
-180
-173
-167
-157
-151
-141
-136
-127
-121
-117
-116
-112
-113
-115
-119
-135
-160
-196
-237
-279
-310
-317
-297
-269
-245
-234
-229
-222
-218
-209
-197
-179
-155
-138
-129
-129
-135
-130
-122
-122
-120
-120
-114
-108
-98
-83
-73
-64
-61
-55
-53
-52
-53
-55
-51
-49
-42
-24
-15
-8
-4
-1
-4
-1
0
3
12
21
34
49
61
73
87
101
112
120
126
134
134
134
131
131
137
140
139
147
155
165
173
185
190
193
198
201
204
204
209
214
215
215
210
209
209
211
211
210
207
206
205
203
203
204
204
204
202
203
197
202
200
205
204
206
208
212
211
216
219
224
235
246
265
278
287
292
293
287
281
269
250
227
205
184
164
148
131
121
107
98
83
75
64
55
54
48
48
47
52
59
63
70
76
73
72
65
64
57
52
46
42
36
31
33
33
33
36
31
31
31
30
29
30
25
19
13
6
-4
-15
-22
-30
-39
-54
-61
-75
-83
-94
-108
-125
-149
-180
-213
-245
-265
-263
-244
-214
-181
-156
-137
-120
-117
-109
-106
-99
-92
-84
-78
-66
-55
-50
-44
-41
-39
-37
-34
-38
-40
-44
-46
-48
-52
-56
-62
-69
-70
-76
-79
-83
-80
-85
-86
-88
-93
-95
-95
-94
-95
-97
-94
-96
-95
-93
-94
-92
-94
-93
-96
-94
-99
-104
-106
-112
-119
-124
-127
-132
-131
-123
-118
-113
-105
-98
-100
-104
-115
-128
-151
-175
-204
-235
-269
-300
-325
-333
-338
-329
-308
-287
-256
-223
-186
-145
-106
-61
-23
16
47
78
104
128
150
166
185
204
218
227
231
238
239
239
231
217
202
184
157
139
117
96
81
66
50
36
23
8
-2
-12
-17
-24
-27
-26
-25
-24
-20
-6
0
6
9
16
21
24
27
35
37
42
45
46
44
43
38
36
32
20
16
13
11
3
-9
-25
-35
-50
-62
-76
-86
-101
-110
-117
-122
-127
-129
-130
-132
-134
-134
-129
-121
-114
-100
-92
-88
-90
-109
-128
-152
-164
-160
-132
-89
-40
1
33
59
79
90
103
111
116
121
124
127
130
132
133
131
129
129
129
124
120
118
118
124
125
131
139
145
155
166
174
180
184
179
173
162
148
130
110
90
74
58
40
28
14
3
-9
-15
-20
-27
-28
-25
-27
-26
-26
-24
-19
-19
-17
-21
-25
-28
-33
-36
-40
-46
-52
-59
-65
-78
-84
-89
-97
-105
-110
-117
-123
-129
-136
-139
-143
-145
-148
-148
-147
-144
-142
-140
-135
-135
-131
-130
-125
-120
-122
-121
-117
-117
-112
-110
-113
-112
-115
-112
-109
-104
-99
-95
-91
-87
-82
-78
-71
-64
-57
-51
-46
-40
-33
-27
-23
-20
-18
-14
-18
-17
-17
-17
-17
-17
-15
-17
-14
-14
-9
-13
-12
-13
-10
-12
-13
-10
-13
-12
-13
-12
-7
-7
-5
-2
1
5
3
7
4
5
5
6
8
7
7
9
9
14
17
15
2
-18
-44
-74
-107
-123
-112
-93
-64
-36
-18
-3
3
-1
-4
-9
-16
-21
-26
-31
-30
-26
-20
-13
-7
4
-1
5
6
7
12
10
10
11
13
13
21
22
26
35
39
44
50
53
58
54
53
51
50
45
40
38
33
33
30
27
27
24
24
20
12
10
3
2
-5
-13
-13
-11
-6
-5
3
6
18
19
28
30
35
34
37
38
40
42
46
47
43
38
40
38
40
37
32
30
26
19
18
14
7
3
-4
-12
-18
-20
-23
-24
-27
-26
-26
-30
-32
-31
-34
-33
-35
-35
-34
-36
-43
-48
-52
-53
-52
-56
-54
-52
-56
-52
-52
-52
-54
-56
-52
-48
-40
-30
-23
-21
-13
-6
8
11
20
21
30
36
46
55
68
76
83
93
105
116
124
134
144
153
165
176
186
199
218
230
246
262
274
292
299
299
294
284
259
226
176
120
65
29
15
22
39
61
74
79
74
65
56
40
30
10
-6
-13
-22
-34
-46
-57
-61
-71
-71
-70
-73
-77
-78
-78
-77
-77
-79
-82
-81
-80
-77
-79
-80
-83
-84
-90
-96
-97
-100
-107
-107
-111
-115
-120
-120
-131
-134
-132
-141
-144
-153
-157
-150
-155
-152
-152
-149
-142
-137
-132
-126
-121
-114
-105
-97
-92
-84
-76
-69
-61
-57
-51
-45
-41
-40
-41
-42
-42
-45
-43
-43
-41
-42
-41
-40
-41
-38
-42
-45
-49
-49
-53
-58
-70
-76
-86
-99
-110
-124
-141
-162
-178
-193
-212
-225
-231
-226
-205
-173
-131
-81
-26
22
60
88
106
118
127
131
131
132
129
125
120
115
107
100
93
88
83
73
72
69
68
64
57
56
55
57
60
62
63
63
59
47
35
19
3
-15
-31
-46
-55
-64
-81
-93
-111
-123
-138
-157
-173
-187
-190
-197
-197
-195
-188
-189
-183
-176
-166
-155
-141
-115
-96
-79
-58
-42
-26
-15
-6
3
6
10
13
14
16
24
24
28
34
34
43
50
58
61
71
82
86
89
92
92
94
93
96
95
95
95
94
92
91
93
98
100
96
92
90
84
84
78
70
65
57
50
35
23
11
-4
-12
-24
-37
-53
-65
-76
-88
-98
-106
-109
-112
-117
-117
-123
-122
-129
-127
-129
-128
-126
-127
-125
-122
-121
-116
-112
-111
-99
-95
-80
-71
-57
-42
-28
-9
8
25
35
49
60
63
69
68
67
64
59
56
53
49
57
65
77
94
106
123
136
142
143
147
147
149
157
167
181
197
214
229
249
265
282
300
311
318
322
325
320
313
300
283
265
239
213
192
168
148
127
114
104
89
78
57
38
7
-28
-61
-91
-118
-145
-160
-172
-186
-191
-193
-192
-190
-192
-193
-202
-225
-246
-276
-282
-271
-248
-203
-158
-119
-91
-73
-55
-44
-35
-30
-31
-24
-17
-17
-14
-9
-6
-6
-4
-9
-10
-13
-17
-16
-21
-19
-26
-32
-35
-42
-52
-54
-61
-66
-66
-64
-71
-65
-67
-72
-72
-72
-76
-76
-72
-74
-77
-77
-78
-83
-85
-83
-85
-84
-79
-74
-71
-60
-56
-52
-50
-40
-41
-37
-35
-31
-26
-16
-12
-9
-5
2
2
8
6
8
7
8
8
7
5
5
4
3
4
4
5
2
4
4
-2
5
2
4
3
-1
1
6
7
16
16
16
16
13
9
3
-5
-14
-26
-34
-45
-52
-61
-69
-72
-70
-67
-59
-56
-49
-45
-35
-28
-22
-17
-15
-10
-9
-7
-12
-8
-12
-8
-10
-18
-15
-19
-16
-23
-29
-40
-48
-55
-60
-67
-66
-67
-67
-66
-62
-55
-48
-41
-35
-41
-53
-75
-106
-132
-148
-145
-119
-82
-42
-13
7
26
36
42
47
50
52
54
56
51
41
26
10
-10
-27
-40
-49
-57
-64
-70
-81
-87
-90
-98
-97
-99
-102
-108
-124
-137
-147
-159
-165
-170
-175
-181
-191
-203
-212
-221
-229
-221
-216
-208
-201
-199
-197
-189
-183
-166
-153
-136
-117
-102
-83
-57
-34
-7
18
34
51
74
85
102
113
131
141
156
160
172
178
189
196
205
206
208
210
212
213
211
207
208
210
208
206
198
198
194
197
195
199
202
206
206
206
206
207
211
216
220
224
223
222
219
216
218
217
220
217
214
208
209
205
207
206
205
204
200
200
199
195
189
187
181
176
175
169
165
160
150
144
139
132
127
121
123
123
123
119
123
128
134
146
155
167
173
185
193
197
198
187
162
133
96
58
36
30
41
67
92
108
118
120
114
103
92
76
63
49
33
15
5
-6
-20
-36
-47
-57
-67
-71
-74
-74
-74
-80
-82
-86
-84
-95
-103
-114
-126
-139
-154
-179
-193
-205
-223
-233
-237
-246
-259
-276
-289
-298
-311
-322
-334
-337
-338
-336
-334
-327
-318
-314
-306
-298
-292
-283
-266
-254
-241
-226
-212
-200
-192
-180
-174
-158
-149
-137
-131
-126
-118
-116
-111
-104
-101
-96
-94
-91
-93
-88
-82
-81
-77
-75
-75
-73
-72
-71
-70
-68
-64
-62
-59
-53
-52
-42
-38
-32
-29
-24
-21
-17
-12
-6
-5
-4
-5
-5
-8
-5
0
7
11
15
20
30
42
48
60
68
79
92
99
107
106
104
102
97
98
95
96
95
96
93
86
82
76
76
75
73
69
68
68
76
88
94
102
107
112
115
107
92
64
31
2
-12
-10
10
39
70
93
109
121
127
130
126
122
114
106
102
93
85
73
64
53
35
26
12
-7
-29
-47
-64
-82
-97
-99
-111
-122
-131
-137
-148
-153
-162
-164
-163
-166
-166
-165
-170
-182
-193
-201
-207
-209
-208
-206
-200
-199
-193
-190
-184
-181
-180
-177
