# ASI test file format
# {"":{"device ID": "","comments": " 1 hour run + 3 stops ","keywords": "Shirt V2,Run","firmware version": "0.6.3","device": "FieldWiz + T-shirt version 2","sampling rate": 250,"resolution": "[16-bit]","date": "2020-04-26","column": ["A1","ECG"],"sensor": ["RAW, ECG"],"label": ["ECG"]}}
# EndOfHeader
-33
-34
-31
-26
-25
-24
-27
-21
-14
-9
-2
10
19
33
43
44
26
12
-16
-40
-59
-68
-61
-37
-6
25
44
59
63
71
67
68
65
64
66
64
62
60
59
58
54
54
51
50
48
38
36
29
26
23
23
19
17
18
19
17
12
9
5
1
-2
-3
-5
-8
-10
-12
-11
-13
-13
-12
-9
-6
-5
0
5
10
12
16
18
21
24
22
26
23
25
28
25
27
29
29
31
31
33
35
33
32
32
34
35
44
50
59
58
47
33
14
-14
-41
-66
-79
-77
-51
-25
2
22
40
37
46
46
41
35
32
33
33
33
36
36
29
26
22
23
21
19
19
17
19
17
14
11
11
10
9
9
5
0
-4
-6
-8
-12
-17
-20
-24
-24
-27
-27
-27
-24
-23
-17
-14
-11
-12
-8
-8
-12
-9
-9
-8
-8
-5
-7
-8
-6
-7
-4
-1
-5
-4
-8
-8
-10
-6
-7
-4
0
1
6
10
17
19
19
12
0
-15
-37
-65
-87
-105
-107
-93
-63
-31
-9
4
10
10
10
14
13
16
14
12
10
13
14
13
12
9
5
6
2
1
-4
-9
-10
-17
-22
-24
-28
-36
-40
-43
-53
-58
-57
-54
-53
-55
-58
-63
-65
-71
-69
-65
-54
-47
-37
-30
-25
-20
-12
-4
-6
-2
-5
-5
0
-3
-5
-4
3
2
5
9
9
11
12
13
15
12
20
22
23
25
26
27
23
31
42
49
49
35
16
-5
-31
-48
-71
-70
-59
-30
-2
20
32
33
31
34
31
32
28
26
25
25
26
23
23
24
21
23
21
18
16
18
17
14
12
14
11
13
11
7
3
-4
-10
-10
-10
-15
-16
-19
-19
-21
-26
-22
-23
-21
-22
-19
-16
-16
-14
-13
-9
-13
-13
-6
-4
-5
-5
2
3
8
5
3
-2
0
3
1
-1
-1
4
4
0
-4
-8
-1
3
7
10
15
24
26
19
-1
-16
-39
-59
-81
-96
-93
-72
-44
-22
-8
1
8
11
13
13
7
3
4
-4
-5
-5
4
7
15
16
16
10
0
-9
-17
-21
-21
-15
-12
-8
-6
-6
-8
-11
-13
-17
-18
-14
-12
-17
-17
-22
-26
-24
-22
-22
-18
-19
-21
-19
-19
-16
-16
-18
-19
-16
-17
-15
-14
-9
-12
-11
-12
-8
-8
-8
-11
-11
-11
-4
-5
-3
-1
-2
1
3
0
1
7
14
13
19
16
5
-7
-27
-53
-77
-92
-103
-85
-54
-28
-5
12
23
28
27
24
20
19
18
17
19
17
15
12
12
10
6
8
8
6
3
8
-1
-2
0
-3
-3
-7
-7
-8
-8
-8
-16
-17
-20
-20
-27
-29
-31
-33
-36
-31
-30
-24
-21
-19
-16
-16
-19
-18
-18
-18
-14
-8
-7
-9
-12
-11
-17
-21
-17
-13
-9
-9
-7
0
2
2
1
3
8
8
3
6
9
17
25
31
26
14
-2
-26
-57
-85
-101
-109
-95
-65
-34
-7
7
21
27
29
32
27
26
24
19
16
15
14
13
7
3
1
-4
-10
-16
-16
-25
-30
-35
-36
-37
-31
-30
-30
-31
-28
-32
-37
-46
-56
-66
-71
-76
-81
-85
-84
-83
-81
-72
-75
-76
-75
-73
-69
-69
-66
-64
-67
-68
-68
-60
-59
-57
-53
-53
-53
-50
-50
-51
-48
-43
-33
-27
-23
-23
-18
-12
-6
-4
4
8
25
36
41
37
28
13
-9
-37
-63
-80
-86
-72
-48
-18
7
26
36
41
44
39
40
36
38
34
32
30
23
22
24
24
24
19
18
20
21
20
21
26
24
22
23
21
16
11
3
-4
4
-5
-5
-8
-8
-13
-15
-14
-13
-9
-7
-4
-4
-1
6
12
14
16
19
21
23
28
34
35
38
36
37
33
33
33
35
38
37
35
33
30
32
35
35
38
36
35
31
35
47
59
68
67
62
47
31
12
-23
-45
-58
-55
-36
-12
10
26
43
50
50
41
40
42
44
37
38
36
34
32
27
22
16
15
20
19
13
-1
-10
-17
-24
-17
-20
-21
-32
-33
-21
-25
-23
-33
-32
-36
-38
-41
-42
-42
-44
-47
-47
-49
-50
-46
-43
-43
-46
-47
-39
-38
-32
-30
-23
-19
-12
-14
-14
-12
-10
-10
-15
-13
-7
0
9
4
6
4
5
10
7
3
-6
-8
-10
-6
-9
-19
-34
-53
-73
-89
-106
-118
-114
-106
-83
-56
-25
1
28
48
56
60
64
61
64
63
62
59
54
47
43
37
36
37
38
40
34
28
23
16
10
8
4
4
6
3
6
3
2
1
5
8
10
6
6
2
-1
-3
-5
-4
-2
2
6
6
6
3
-1
-6
-8
-11
-9
-9
-6
-3
-6
-10
-6
-8
-5
-3
4
11
13
20
25
32
35
34
31
33
28
34
38
39
41
36
23
9
-10
-34
-58
-80
-94
-93
-74
-44
-23
0
12
24
28
23
19
9
4
2
-2
1
-6
-13
-29
-37
-39
-38
-33
-28
-28
-29
-27
-27
-30
-31
-33
-34
-39
-44
-43
-44
-46
-53
-55
-53
-51
-44
-45
-51
-56
-56
-62
-63
-63
-60
-54
-51
-46
-39
-31
-33
-33
-33
-26
-21
-21
-16
-10
-5
0
4
8
6
7
2
-1
4
4
7
3
8
4
9
13
19
23
33
41
40
31
17
0
-28
-52
-79
-98
-109
-92
-58
-28
2
19
32
38
38
43
45
47
44
48
48
47
50
48
45
39
36
36
35
33
35
31
32
34
32
27
31
29
28
27
23
19
15
15
4
4
2
-1
0
1
4
8
3
-4
-11
-17
-19
-16
-12
-4
-5
-8
-11
-12
-13
-13
-11
-9
-6
4
10
15
17
17
18
17
16
18
18
21
22
22
23
26
22
29
34
33
30
24
6
-15
-37
-70
-98
-121
-124
-110
-80
-59
-38
-29
-25
-34
-34
-30
-27
-19
-13
-11
-12
-18
-29
-26
-25
-29
-27
-21
-20
-21
-21
-23
-26
-27
-30
-28
-23
-21
-19
-22
-29
-31
-35
-42
-47
-51
-56
-63
-61
-57
-55
-54
-51
-47
-46
-44
-37
-33
-24
-19
-14
-10
-9
-5
0
0
-3
3
0
-6
-7
-5
2
3
9
9
12
12
14
9
3
0
-3
-2
-5
2
9
14
11
7
-9
-31
-55
-78
-104
-116
-114
-93
-51
-17
11
28
43
43
45
36
30
29
29
31
32
36
39
41
39
38
38
35
25
18
9
7
6
5
10
12
12
12
12
7
10
10
2
-3
-13
-16
-22
-35
-54
-58
-60
-50
-50
-45
-38
-33
-27
-20
-14
-6
8
13
15
19
15
19
20
17
24
20
20
16
16
14
17
15
19
22
19
18
18
16
18
14
13
16
13
14
3
-8
-34
-62
-97
-131
-150
-160
-147
-123
-91
-69
-44
-25
-15
-10
-5
1
-1
-10
-17
-13
-16
-19
-19
-19
-15
-11
-7
1
2
-5
-9
-14
-18
-19
-22
-24
-24
-23
-23
-24
-24
-24
-29
-29
-33
-31
-30
-28
-29
-21
-19
-19
-16
-12
-7
-4
-1
-7
-11
-15
-14
-9
-8
-6
-2
3
1
2
0
-5
-5
-7
-11
-10
-12
-13
-12
-13
-8
-11
-9
-10
-7
2
11
16
19
20
10
-10
-32
-65
-93
-114
-121
-103
-70
-37
-9
12
28
42
45
52
49
47
41
38
36
32
32
31
30
30
29
30
32
25
20
20
20
20
20
16
9
3
4
1
-1
-4
-6
-9
-9
-13
-15
-20
-23
-24
-21
-8
-2
9
19
25
27
24
23
24
28
25
28
25
23
20
15
14
12
9
9
10
9
10
11
7
8
6
9
3
1
-4
-5
-4
3
2
1
-12
-29
-57
-81
-111
-141
-159
-167
-153
-127
-91
-57
-37
-14
-2
0
-5
-6
-3
5
4
4
5
-3
-5
-5
-8
-8
-11
-9
-13
-19
-25
-25
-23
-23
-26
-27
-23
-25
-26
-29
-27
-26
-24
-27
-30
-31
-31
-30
-34
-34
-31
-27
-25
-29
-30
-32
-31
-30
-26
-23
-22
-18
-15
-13
-15
-15
-13
-15
-13
-13
-14
-13
-12
-6
-5
-4
-4
1
6
7
11
12
23
30
37
39
43
39
30
13
-12
-32
-61
-87
-92
-89
-64
-31
0
23
38
45
43
45
45
47
45
48
48
49
51
45
45
46
44
46
40
36
29
24
15
10
7
10
16
13
12
9
8
13
16
17
18
16
17
18
19
19
19
19
22
24
24
25
26
24
23
19
20
27
26
23
24
26
23
24
23
18
13
10
1
-3
-7
-9
-10
-12
-16
-20
-23
-28
-28
-27
-27
-18
-16
-25
-32
-43
-56
-77
-103
-122
-140
-141
-115
-79
-52
-31
-14
0
11
23
31
32
28
24
20
13
12
5
3
-8
-13
-10
-13
-9
-4
-8
-5
-5
-6
-9
-13
-11
-12
-9
-8
-10
-14
-14
-17
-18
-18
-23
-31
-34
-36
-32
-28
-25
-24
-23
-25
-25
-28
-25
-25
-21
-21
-19
-21
-16
-17
-22
-19
-23
-24
-23
-17
-14
-13
-7
-8
-5
0
3
3
5
2
4
7
9
13
21
20
11
5
-20
-40
-59
-79
-95
-93
-71
-47
-14
10
26
40
45
39
34
33
35
34
28
26
25
27
30
32
25
20
17
17
17
14
14
10
9
7
9
9
8
1
2
4
6
6
13
18
20
19
20
18
14
16
15
15
12
16
13
14
12
14
13
16
15
14
17
20
17
16
7
5
4
5
5
8
3
-6
-12
-18
-24
-33
-39
-38
-40
-40
-36
-25
-18
-14
-19
-22
-36
-57
-81
-116
-143
-161
-151
-123
-87
-58
-33
-11
4
15
25
24
20
14
9
11
18
16
8
6
3
6
6
-1
-2
1
0
-2
5
5
6
12
18
21
20
18
16
14
13
8
1
0
-3
-4
-9
-10
-10
-10
-6
-7
-4
-3
-9
-9
-13
-11
-14
-16
-17
-17
-15
-16
-17
-17
-17
-17
-22
-16
-9
5
4
5
5
7
10
23
29
32
33
29
25
20
23
29
29
23
11
-15
-42
-75
-97
-100
-89
-58
-26
1
15
21
25
23
28
28
30
34
31
33
32
33
34
29
27
25
21
15
11
11
14
18
21
15
14
12
14
11
19
12
7
6
-1
2
2
4
2
1
-3
-5
-3
6
6
9
6
1
5
5
2
5
6
1
2
-3
-1
1
-3
-4
-3
-9
-11
-15
-21
-26
-25
-24
-31
-32
-32
-37
-42
-51
-50
-53
-53
-47
-34
-36
-43
-54
-72
-98
-124
-145
-143
-133
-109
-82
-53
-31
-13
5
15
13
12
12
10
4
-5
-10
-11
-7
-6
-5
-4
-5
-7
-11
-10
-8
-8
-5
-6
-4
-4
-5
-3
-3
-6
-14
-18
-23
-24
-24
-29
-29
-31
-30
-32
-26
-27
-20
-20
-22
-20
-21
-20
-16
-16
-20
-22
-23
-22
-17
-17
-17
-11
-15
-18
-21
-19
-11
-11
-4
-7
-5
-3
2
3
9
9
3
7
9
12
17
22
24
13
-5
-28
-57
-86
-103
-106
-85
-57
-37
-14
8
21
32
37
38
36
29
24
24
30
32
29
24
24
20
22
22
21
22
15
15
18
18
22
22
22
23
25
23
24
26
19
15
11
11
8
6
0
-3
-7
-8
5
5
6
7
11
9
11
17
15
18
20
19
18
11
12
6
-3
-5
-8
-16
-16
-22
-28
-28
-32
-37
-35
-37
-35
-28
-24
-29
-27
-31
-33
-33
-41
-55
-69
-83
-107
-130
-145
-142
-119
-82
-51
-26
-12
-2
0
-3
-4
-4
-6
-10
-11
-10
-9
-3
1
5
8
1
4
-2
-3
1
3
9
13
14
12
8
7
4
1
-6
-16
-23
-22
-26
-27
-18
-18
-18
-17
-15
-13
-13
-15
-17
-13
-22
-23
-25
-21
-15
-16
-17
-14
-10
-11
-11
-13
-10
-7
-4
1
0
-2
2
8
6
9
16
19
22
17
14
12
15
20
31
37
37
21
7
-10
-36
-57
-78
-93
-90
-74
-42
-9
18
34
44
49
50
49
47
38
37
34
29
30
28
21
20
14
14
12
11
7
6
5
7
10
13
23
28
32
29
25
28
27
24
16
11
0
-3
-7
-13
-15
-19
-20
-24
-24
-26
-24
-30
-29
-27
-27
-25
-23
-28
-35
-41
-38
-42
-46
-50
-57
-56
-44
-34
-32
-30
-26
-24
-23
-25
-35
-40
-40
-41
-37
-25
-12
-5
-8
-31
-53
-65
-87
-100
-109
-122
-128
-112
-85
-60
-32
-16
-4
4
5
10
8
9
6
10
11
16
17
25
28
30
27
21
19
22
22
18
20
20
23
26
27
38
38
38
40
33
24
12
-2
-11
-16
-21
-22
-19
-16
-18
-23
-28
-26
-24
-27
-21
-12
-4
3
8
9
9
11
15
18
21
16
4
-2
-3
-4
-5
4
3
12
20
23
27
33
27
17
11
9
11
18
20
16
7
-8
-27
-48
-72
-91
-100
-90
-66
-37
-10
11
19
25
25
28
27
25
25
25
21
27
31
38
32
24
24
25
32
35
43
46
47
48
44
40
32
26
26
25
25
24
24
17
11
3
5
3
-3
-6
-4
-5
1
-1
-5
-10
-12
-18
-26
-30
-37
-37
-32
-36
-36
-35
-34
-32
-40
-46
-50
-60
-59
-49
-43
-35
-32
-39
-46
-43
-37
-26
-17
-2
-3
3
4
11
4
-4
-23
-45
-71
-104
-128
-139
-130
-105
-77
-47
-18
6
10
20
21
24
25
22
20
17
19
18
17
16
20
14
13
6
2
6
6
14
15
18
18
18
18
11
8
8
5
-4
-2
0
-3
4
0
-9
-14
-16
-17
-21
-20
-14
-9
-6
-4
0
-3
2
-2
5
2
2
0
-3
-3
-4
1
8
14
12
13
10
9
10
11
15
16
18
20
19
20
17
18
23
34
39
40
30
13
-13
-45
-81
-106
-117
-108
-85
-55
-28
-9
13
18
19
16
20
25
30
34
41
46
51
54
57
57
54
50
46
41
39
32
30
24
21
19
15
12
9
7
3
4
4
-3
-8
-14
-17
-21
-26
-32
-36
-40
-48
-50
-55
-58
-56
-50
-50
-51
-53
-53
-45
-39
-40
-42
-44
-40
-35
-33
-31
-32
-32
-32
-27
-19
-12
-5
-5
-5
-4
-6
-13
-11
-13
-10
-1
3
-5
-14
-29
-48
-68
-91
-106
-105
-90
-61
-29
-2
16
30
32
33
34
33
34
36
29
27
21
23
24
30
30
33
26
18
17
18
20
20
19
21
24
20
18
11
9
8
3
4
3
1
-2
0
-7
-12
-16
-15
-10
-6
-9
-4
-12
-9
-7
-5
6
18
22
20
14
14
17
17
20
20
20
18
18
14
15
11
13
19
17
22
20
17
13
16
16
17
20
19
19
21
15
3
-18
-43
-68
-85
-92
-91
-75
-45
-24
1
19
32
41
47
50
53
49
47
49
46
44
38
31
24
23
20
18
11
10
11
8
5
4
4
9
5
0
-9
-16
-19
-28
-34
-37
-39
-44
-48
-52
-56
-57
-59
-61
-63
-60
-61
-57
-58
-59
-56
-54
-51
-51
-50
-45
-36
-31
-31
-32
-29
-23
-24
-20
-21
-23
-20
-16
-13
-14
-15
-14
-8
-7
-3
-2
-2
6
14
18
19
18
2
-12
-41
-70
-98
-114
-106
-82
-53
-27
-10
7
13
20
23
23
24
25
26
23
21
17
16
17
15
18
18
18
12
7
5
3
1
-4
-5
-5
-9
-13
-10
-8
0
-5
-6
-9
-6
-5
-6
-11
-14
-15
-15
-15
-19
-17
-11
-9
-5
-7
-10
-5
0
2
5
3
-2
-4
-7
-7
-3
-2
-1
-4
3
3
9
9
8
6
8
3
10
8
9
12
23
36
36
29
4
-19
-30
-37
-54
-68
-73
-64
-42
-19
5
19
33
44
47
49
43
42
39
38
36
36
31
29
28
23
15
14
17
17
14
14
6
5
4
-2
-6
-8
-16
-22
-20
-24
-26
-32
-36
-42
-47
-51
-57
-59
-61
-60
-55
-53
-45
-43
-41
-36
-39
-41
-42
-44
-48
-43
-36
-36
-30
-32
-28
-32
-35
-35
-36
-36
-37
-33
-30
-21
-15
-14
-14
-11
-13
-11
-8
2
7
13
17
16
7
-14
-35
-62
-87
-102
-105
-94
-73
-46
-25
-9
2
14
23
26
23
21
25
24
21
15
11
13
11
9
10
11
16
14
9
7
3
1
3
5
12
12
3
9
12
13
1
-11
-24
-34
-35
-34
-30
-28
-26
-36
-44
-41
-33
-25
-20
-15
-12
-13
-9
-9
-7
-5
2
8
9
8
11
8
3
2
-3
-2
1
0
1
3
2
1
0
-2
0
-1
-2
0
7
18
27
32
30
22
14
-16
-40
-64
-81
-70
-46
-16
7
33
40
48
52
44
38
29
29
28
27
23
25
23
22
24
30
29
27
20
11
1
-8
-9
-16
-20
-24
-20
-19
-20
-23
-27
-23
-25
-28
-38
-44
-53
-68
-70
-69
-65
-55
-43
-39
-37
-32
-33
-30
-32
-35
-30
-36
-37
-32
-23
-16
-14
-17
-21
-18
-10
-4
-6
3
2
4
8
10
15
16
16
17
13
13
18
18
21
20
12
-8
-29
-54
-83
-107
-116
-104
-73
-28
5
31
48
52
54
50
45
42
37
36
33
34
35
34
27
25
28
29
33
33
29
28
27
28
23
20
14
10
8
5
3
-6
-12
-7
-6
-9
-15
-22
-26
-28
-28
-23
-25
-24
-21
-16
-8
-5
-4
-5
4
7
9
16
14
11
7
4
3
-6
-12
-15
-10
-2
4
4
8
7
8
8
12
17
19
24
26
31
38
49
61
62
57
44
22
-7
-34
-61
-80
-85
-73
-43
-15
9
29
35
40
41
38
34
35
30
26
24
12
4
-5
-8
-16
-19
-23
-20
-15
-10
-7
-11
-13
-19
-24
-29
-35
-26
-25
-22
-23
-23
-23
-28
-32
-36
-37
-40
-38
-35
-34
-34
-39
-45
-40
-39
-35
-37
-34
-30
-28
-31
-24
-23
-25
-18
-11
-8
0
0
2
8
9
9
8
9
10
9
10
5
1
-11
-21
-17
-15
-11
-19
-31
-47
-70
-92
-114
-129
-136
-136
-122
-98
-68
-35
-6
13
26
35
38
42
48
46
45
48
47
49
49
48
44
41
32
25
25
21
26
25
30
31
29
26
25
23
23
26
26
24
15
11
5
1
3
4
0
2
0
-2
3
6
8
10
5
4
-7
-12
-18
-19
-16
-11
-7
-6
1
1
4
2
2
6
11
16
19
20
22
20
17
18
16
16
13
20
26
33
37
32
26
13
-11
-36
-67
-90
-100
-91
-66
-34
-8
13
27
32
27
25
24
12
8
2
-4
-14
-18
-21
-21
-24
-23
-26
-31
-35
-33
-36
-35
-37
-36
-43
-43
-45
-42
-36
-30
-28
-32
-44
-46
-46
-46
-45
-46
-45
-49
-46
-48
-55
-54
-53
-52
-56
-48
-43
-35
-32
-27
-29
-29
-26
-22
-14
-7
0
0
4
1
2
3
0
-2
2
4
0
0
-1
-2
4
12
20
24
25
16
3
-19
-45
-75
-104
-118
-116
-88
-56
-21
2
16
22
24
31
29
28
26
26
29
26
25
27
30
38
30
26
29
31
32
30
27
24
19
22
24
21
18
20
21
18
16
10
7
2
0
-4
0
-2
-5
-7
-11
-14
-15
-13
-11
-12
-12
-12
-15
-17
-21
-21
-16
-6
-7
-5
-8
-11
-12
-10
-9
-7
-6
2
14
24
22
27
27
33
33
33
34
41
50
57
52
42
20
-1
-24
-52
-80
-97
-101
-89
-68
-45
-31
-18
-6
4
4
-2
-9
-13
-24
-34
-38
-29
-20
-14
-10
-6
-12
-16
-22
-28
-34
-38
-30
-21
-21
-24
-20
-14
-12
-18
-25
-25
-28
-36
-37
-45
-49
-48
-50
-56
-59
-59
-58
-55
-56
-51
-44
-36
-36
-31
-29
-27
-21
-19
-11
-9
-6
-11
-10
-12
-16
-17
-14
-13
-14
-11
-10
-10
-12
-6
-2
3
9
13
19
28
30
23
18
-2
-21
-49
-76
-97
-108
-101
-78
-44
-16
8
27
32
37
39
38
39
40
44
41
42
40
37
32
31
36
34
33
28
24
29
34
32
23
14
9
2
-2
-4
-9
-15
-12
-13
-20
-23
-31
-29
-30
-28
-21
-19
-14
-14
-12
-14
-12
-17
-18
-27
-37
-44
-42
-40
-33
-29
-16
-10
-8
-8
-13
-11
-1
9
15
21
25
26
26
23
17
15
13
16
18
28
34
35
31
22
3
-20
-52
-81
-97
-103
-88
-63
-42
-17
-7
2
3
-1
2
-1
-6
-13
-19
-27
-32
-38
-40
-37
-40
-49
-48
-40
-27
-21
-19
-22
-19
-20
-23
-20
-21
-13
-9
-8
-13
-17
-23
-31
-35
-40
-45
-45
-47
-46
-48
-46
-43
-35
-35
-33
-32
-34
-32
-33
-38
-41
-41
-34
-26
-22
-17
-17
-18
-20
-19
-18
-9
-6
-3
-1
-2
-4
-5
-4
2
2
5
10
15
19
16
8
-10
-33
-57
-86
-106
-119
-108
-85
-53
-19
6
22
34
36
32
28
25
26
17
10
14
24
33
40
38
36
37
36
30
24
18
14
13
15
12
13
12
10
6
2
1
-3
-4
-8
-10
-10
-15
-17
-21
-25
-28
-25
-23
-23
-14
-6
2
5
5
6
7
12
15
12
14
17
18
27
25
31
29
38
37
41
43
45
46
47
50
47
41
44
43
44
48
50
41
37
24
1
-28
-59
-89
-105
-110
-94
-71
-48
-28
-13
0
7
6
4
3
-5
-13
-13
-20
-21
-16
-20
-14
-17
-18
-13
3
4
-1
-2
-5
-9
-14
-9
-9
-13
-10
-16
-25
-32
-38
-39
-45
-44
-44
-47
-45
-44
-40
-36
-32
-24
-16
-10
-5
1
2
5
-1
2
2
-5
-10
-8
-11
-13
-16
-19
-16
-9
-1
8
10
12
14
16
18
15
12
12
16
20
23
23
16
8
-15
-34
-56
-83
-102
-98
-81
-48
-18
7
31
49
57
57
51
48
45
41
39
44
44
47
49
43
48
42
45
41
36
31
28
26
23
27
33
30
29
25
29
23
22
18
7
2
3
-3
-10
-20
-26
-22
-24
-20
-13
-12
-11
-17
-19
-20
-19
-14
-5
-2
4
6
9
15
17
17
18
16
17
17
19
20
17
19
19
15
17
16
16
18
20
25
32
26
16
-7
-32
-66
-99
-130
-149
-149
-127
-105
-77
-48
-22
-6
3
8
8
4
-9
-21
-31
-29
-21
-11
-9
-16
-24
-22
-18
-16
-12
-12
-4
4
5
0
-5
-9
-14
-18
-22
-23
-27
-31
-29
-31
-37
-35
-38
-40
-41
-40
-36
-29
-24
-23
-24
-25
-24
-23
-22
-20
-21
-19
-20
-15
-13
-9
-7
-7
-6
-3
7
8
7
9
11
13
13
10
7
10
7
11
15
25
24
22
7
-10
-29
-55
-80
-98
-106
-88
-60
-34
-6
16
31
40
36
37
40
49
54
54
43
28
14
11
12
19
20
18
18
17
13
14
16
14
16
13
12
15
11
11
15
14
8
-9
-21
-26
-30
-29
-31
-29
-29
-26
-20
-18
-16
-12
-13
-8
-9
-5
-1
6
12
12
8
10
8
9
3
6
10
10
12
13
16
18
20
21
23
22
21
22
21
29
34
30
16
-5
-31
-65
-103
-134
-150
-158
-137
-110
-81
-55
-39
-27
-25
-23
-20
-21
-18
-16
-20
-24
-19
-11
-10
-13
-16
-27
-31
-27
-21
-10
-9
-13
-17
-20
-24
-21
-23
-26
-29
-28
-30
-30
-28
-32
-31
-29
-29
-24
-22
-19
-21
-24
-19
-21
-19
-19
-19
-16
-22
-18
-15
-10
-5
-5
0
-3
-3
0
-1
4
3
4
4
3
8
4
9
9
7
7
12
13
18
24
24
17
8
-15
-36
-58
-79
-94
-92
-75
-43
-13
9
26
37
48
54
55
51
50
52
49
47
50
49
52
54
51
49
41
31
30
32
30
32
24
23
19
19
21
16
15
9
5
5
-7
-8
-12
-13
-12
-18
-19
-15
-8
-6
-1
5
12
16
18
16
17
25
35
37
41
42
37
34
38
38
38
40
37
40
41
39
40
37
32
30
23
22
23
28
29
29
18
5
-20
-49
-82
-114
-138
-151
-140
-110
-76
-48
-29
-17
-4
-1
-1
-3
-5
-9
-16
-21
-14
-9
-7
-10
-10
-11
-9
-18
-17
-21
-12
-10
-4
-4
-5
-5
-4
-4
-4
-10
-13
-20
-29
-32
-33
-35
-32
-32
-32
-28
-25
-25
-23
-24
-17
-13
-19
-21
-20
-21
-11
-3
-2
4
-2
-5
-7
-8
-11
-8
-3
-2
-4
1
-1
7
3
5
4
6
4
8
15
21
22
14
2
-20
-43
-71
-97
-110
-103
-77
-43
-7
20
38
40
42
40
38
38
42
48
52
50
48
42
39
36
37
39
44
51
56
54
44
35
31
28
32
32
26
27
26
21
16
6
-5
-13
-19
-25
-26
-27
-30
-28
-30
-28
-24
-33
-33
-33
-28
-17
-11
-4
2
3
6
8
8
6
3
4
6
5
7
5
7
8
7
4
4
1
3
4
5
13
18
13
9
-10
-31
-60
-95
-133
-152
-163
-150
-120
-83
-54
-41
-33
-28
-28
-25
-22
-21
-14
-14
-13
-4
-5
-4
-13
-16
-19
-13
-9
-10
-13
-11
-16
-14
-14
-14
-13
-10
-13
-12
-18
-24
-25
-28
-31
-29
-28
-31
-30
-34
-34
-36
-31
-20
-15
-13
-14
-15
-18
-19
-15
-11
-10
-10
-10
-10
-8
-4
-8
-8
-6
-7
-9
0
-5
-4
2
0
3
-5
-10
-10
-8
-2
-2
-4
-12
-23
-40
-60
-88
-102
-115
-100
-77
-43
-23
-2
18
32
44
48
46
35
30
25
24
27
33
34
33
31
36
31
27
22
24
23
19
16
15
16
16
13
13
13
10
7
4
2
-9
-15
-16
-21
-22
-29
-29
-31
-30
-29
-23
-16
-14
-10
-11
-5
-2
-1
4
5
9
13
12
19
19
19
20
19
19
22
22
21
20
21
23
24
28
33
41
46
47
43
25
10
-14
-37
-66
-87
-105
-111
-95
-70
-46
-27
-12
-5
1
2
-5
-10
-10
-11
-10
-11
-18
-23
-23
-20
-15
-14
-12
-20
-26
-31
-28
-20
-22
-24
-25
-27
-28
-28
-34
-38
-36
-40
-42
-42
-42
-45
-38
-36
-34
-38
-28
-25
-19
-12
-10
-11
-12
-11
-9
-7
-10
-8
-5
-2
0
3
6
7
8
5
11
13
16
16
19
22
24
23
18
23
28
35
41
46
40
28
14
-17
-45
-72
-91
-98
-84
-60
-33
-6
21
36
43
39
40
41
40
40
33
30
29
30
27
28
23
25
28
33
32
29
25
25
20
18
18
13
12
11
7
4
4
1
-5
-7
-11
-26
-32
-35
-37
-36
-35
-34
-35
-36
-34
-31
-27
-26
-19
-9
5
8
13
21
24
19
15
19
20
16
11
9
11
7
7
7
9
5
5
4
1
3
11
13
12
3
-12
-32
-61
-95
-126
-142
-141
-124
-98
-73
-55
-35
-20
-15
-17
-17
-16
-12
-14
-20
-22
-24
-25
-24
-22
-24
-25
-32
-35
-37
-30
-25
-21
-24
-26
-20
-20
-20
-21
-25
-30
-33
-32
-36
-36
-34
-35
-28
-29
-32
-30
-30
-22
-15
-11
-6
-6
-5
-3
-5
-5
-3
-3
-4
-3
-7
-8
-10
-10
-5
1
10
12
18
19
18
17
15
13
16
18
21
26
30
24
21
3
-17
-36
-60
-86
-102
-100
-80
-50
-15
15
35
44
48
45
43
47
47
48
43
43
43
45
45
46
42
39
40
38
38
41
40
30
28
27
25
24
23
23
23
22
19
16
14
7
2
-8
-12
-18
-23
-26
-31
-51
-73
-93
-101
-108
-109
-101
-89
-76
-59
-42
-22
-8
-1
4
9
18
21
25
22
26
25
24
23
27
25
23
25
24
27
33
43
51
51
38
23
0
-29
-58
-89
-102
-103
-80
-58
-39
-20
-5
6
6
8
7
5
-7
-9
-11
-15
-9
-8
-9
-9
-5
-7
-10
-7
-5
-10
-8
-6
-4
-8
-10
-7
-8
1
-4
-6
-9
-11
-16
-20
-24
-27
-29
-27
-27
-27
-29
-28
-21
-15
-14
-15
-8
-10
-12
-17
-16
-18
-10
-13
-20
-24
-27
-16
-7
-8
-2
1
1
6
12
11
15
18
22
24
31
33
34
29
23
8
-13
-41
-71
-96
-112
-112
-93
-58
-27
-4
10
24
33
38
35
33
32
31
27
21
20
21
23
29
27
25
23
28
24
23
29
24
22
18
18
23
22
19
10
3
-3
-4
-7
-9
-7
-11
-13
-18
-21
-19
-16
-16
-18
-17
-19
-20
-14
-11
-10
-11
-10
-7
0
3
7
13
14
14
17
17
22
25
24
21
20
22
16
15
16
18
19
29
35
39
32
11
-16
-57
-92
-121
-130
-123
-86
-60
-31
-6
8
12
10
8
4
-2
2
-1
-5
-8
-15
-20
-29
-35
-33
-23
-14
-16
-19
-18
-14
-10
-9
-13
-17
-29
-35
-43
-39
-32
-25
-21
-19
-25
-33
-34
-39
-38
-46
-50
-53
-49
-43
-42
-38
-35
-27
-21
-20
-9
1
0
-1
-2
-10
-12
-11
-10
-12
-7
-1
-1
6
6
4
4
3
1
1
-2
1
6
9
17
16
8
-13
-40
-68
-101
-122
-121
-95
-56
-16
18
40
55
61
60
54
50
42
44
43
46
43
43
40
39
37
36
34
35
35
36
32
32
29
23
23
23
23
19
19
11
9
-2
-5
-3
-2
-6
-9
-12
-12
-17
-19
-25
-22
-23
-19
-25
-23
-24
-21
-17
-14
-13
-9
-4
3
11
16
22
18
18
15
20
19
12
11
10
7
8
8
9
9
14
23
32
37
36
28
8
-14
-40
-72
-96
-105
-92
-65
-40
-13
6
17
20
17
9
3
-2
-7
-10
-15
-19
-24
-21
-24
-26
-29
-32
-24
-27
-27
-24
-20
-20
-22
-27
-27
-25
-29
-33
-29
-26
-20
-24
-30
-35
-37
-45
-49
-53
-51
-51
-45
-41
-34
-27
-25
-24
-19
-22
-20
-12
-5
-4
0
-3
-7
-14
-13
-9
-12
-6
0
-4
1
2
1
8
14
14
20
20
21
31
38
41
39
28
8
-21
-47
-77
-94
-91
-76
-47
-19
8
23
31
37
37
38
40
41
36
33
36
32
31
26
31
25
23
19
22
23
24
26
26
25
24
24
17
20
16
15
17
12
7
4
-2
-6
-9
-9
-5
-4
-7
-7
-10
-15
-13
-13
-13
-6
-6
-9
-9
-11
-11
-8
-4
-1
3
8
8
12
7
15
13
16
24
26
26
23
22
24
17
15
18
25
36
41
39
30
17
-7
-35
-62
-88
-97
-90
-68
-44
-21
-1
7
9
5
-5
-8
-6
-11
-9
-15
-17
-18
-9
-5
-7
-12
-24
-26
-31
-32
-36
-35
-34
-36
-41
-35
-27
-29
-36
-44
-48
-44
-44
-42
-36
-38
-37
-40
-45
-46
-48
-48
-48
-45
-46
-45
-40
-36
-32
-25
-23
-23
-16
-11
-9
-4
-8
-8
-12
-13
-13
-14
-11
-5
-2
2
1
4
2
6
8
11
14
21
33
40
34
20
0
-29
-59
-90
-108
-112
-88
-62
-30
-8
9
19
24
30
29
32
30
30
27
30
31
30
28
24
18
18
16
8
8
10
7
9
14
18
19
17
13
15
13
8
6
-1
-8
-13
-16
-15
-16
-17
-17
-18
-21
-20
-16
-12
-13
-9
-7
-8
-8
-7
-9
-4
-8
-10
-12
-9
-7
-7
-5
-3
-5
-6
-5
-6
0
8
13
18
18
23
21
23
30
39
45
42
30
13
-12
-38
-65
-84
-92
-78
-50
-26
-5
12
23
27
25
24
23
16
18
9
-1
-7
-9
-15
-23
-29
-34
-37
-40
-40
-36
-42
-51
-55
-54
-51
-51
-46
-46
-53
-61
-67
-66
-70
-63
-63
-58
-61
-64
-65
-65
-66
-68
-63
-67
-64
-64
-57
-48
-45
-38
-34
-32
-30
-23
-17
-7
-3
-6
-3
-2
-4
-4
-4
-8
-5
-4
-4
-11
-9
-11
-9
-7
4
14
25
26
21
9
-9
-30
-58
-84
-99
-101
-81
-52
-24
2
21
36
39
44
45
45
43
46
47
43
40
42
41
40
38
35
34
34
33
33
32
29
29
36
33
29
25
24
20
16
16
16
14
7
-1
-9
-9
-9
-12
-10
-13
-12
-12
-3
0
-12
-16
-20
-24
-20
-20
-17
-12
-6
-7
-5
-2
3
12
18
19
24
24
27
28
28
27
30
31
29
32
36
40
46
54
49
43
25
1
-24
-54
-75
-81
-63
-35
-8
15
28
40
40
36
29
24
23
26
21
16
16
8
1
-5
-4
-8
-9
-11
-19
-28
-37
-40
-36
-36
-33
-30
-26
-22
-24
-33
-40
-42
-41
-39
-37
-36
-41
-37
-30
-30
-24
-27
-25
-28
-28
-27
-27
-23
-16
-14
-13
-11
-7
-9
-9
-6
4
6
7
10
12
12
12
15
16
19
19
18
15
10
8
8
15
18
14
6
-11
-34
-57
-90
-114
-127
-120
-95
-62
-28
-5
10
19
24
30
28
30
33
33
31
34
32
34
34
36
34
37
38
38
37
32
36
35
33
35
35
38
36
34
38
44
37
33
29
24
22
21
18
14
12
11
12
9
6
9
12
15
14
14
9
8
7
4
-1
3
7
6
4
7
10
11
16
16
20
20
31
32
28
27
32
35
32
34
40
45
47
40
29
11
-16
-47
-74
-96
-103
-87
-55
-24
-2
15
24
25
25
22
18
12
4
-6
-17
-24
-23
-22
-24
-27
-33
-35
-34
-34
-33
-33
-33
-30
-29
-25
-25
-20
-23
-31
-37
-41
-40
-41
-34
-29
-26
-26
-25
-27
-27
-29
-25
-21
-17
-14
-12
-8
-11
-14
-15
-12
-9
-9
-6
-10
-14
-14
-13
-9
-6
-4
-6
-8
-10
-5
-4
0
-5
-3
0
1
7
17
23
27
18
4
-20
-49
-84
-108
-125
-116
-95
-68
-39
-19
-7
4
9
11
14
16
18
17
13
13
12
15
10
8
5
1
-1
-7
-6
-6
1
2
3
8
8
7
10
7
8
7
2
-4
-12
-16
-16
-18
-24
-29
-31
-32
-33
-26
-25
-19
-16
-11
-9
-9
-11
-12
-12
-14
-13
-14
-15
-15
-8
-7
-2
4
2
0
1
6
15
18
23
28
34
36
43
48
52
56
51
39
24
0
-30
-60
-82
-94
-86
-63
-32
-8
10
24
33
38
35
31
24
23
18
15
12
12
9
5
-5
-14
-19
-28
-28
-31
-30
-34
-41
-48
-43
-50
-54
-53
-54
-59
-69
-75
-77
-78
-89
-86
-79
-67
-60
-60
-59
-59
-57
-53
-54
-55
-56
-55
-56
-57
-53
-46
-42
-37
-37
-30
-31
-35
-33
-32
-24
-18
-18
-16
-9
-14
-15
-17
-11
-8
-7
-8
-3
5
9
9
1
-14
-36
-59
-85
-102
-104
-92
-73
-44
-22
-7
9
18
23
22
27
28
29
27
25
29
29
30
28
23
24
20
21
23
23
22
23
21
20
17
21
21
26
24
20
19
17
14
6
5
4
2
-2
-6
2
-3
-4
-9
-12
-10
-12
-11
-7
-7
-7
-6
1
-5
-6
-17
-21
-20
-16
-14
-15
-9
-3
4
9
11
15
20
24
30
36
40
48
58
64
72
72
70
56
32
5
-25
-46
-66
-66
-54
-30
-5
19
34
41
48
44
42
36
31
30
21
17
16
4
-5
-13
-16
-18
-21
-25
-27
-32
-37
-39
-44
-44
-42
-40
-40
-47
-44
-45
-32
-29
-26
-30
-41
-48
-55
-59
-56
-50
-39
-34
-29
-25
-30
-29
-24
-24
-31
-28
-26
-22
-25
-31
-32
-29
-29
-24
-18
-9
0
3
4
7
6
7
7
1
-7
-17
-20
-21
-23
-26
-33
-49
-66
-88
-113
-134
-146
-146
-128
-100
-73
-44
-25
-3
5
16
24
23
26
28
31
29
26
27
30
25
25
28
27
27
23
19
16
14
16
14
11
12
8
10
12
13
11
5
4
1
1
-4
-3
-4
-3
-6
-10
-10
-7
-5
5
3
1
-2
-1
-7
-7
-7
-7
-10
-12
-15
-19
-16
-10
-7
-5
-1
10
17
25
25
29
29
27
30
35
44
51
58
60
55
45
28
8
-21
-49
-73
-83
-72
-52
-25
4
19
33
41
44
41
39
34
31
23
20
14
8
2
1
-3
-5
-5
-9
-5
-9
-16
-22
-30
-37
-41
-47
-50
-57
-62
-62
-57
-57
-62
-61
-62
-66
-69
-66
-63
-63
-63
-63
-56
-49
-48
-48
-48
-47
-43
-48
-44
-42
-36
-34
-29
-20
-14
-16
-16
-11
-10
-9
0
5
10
17
22
23
21
19
18
21
24
26
25
23
7
-6
-25
-53
-73
-89
-88
-75
-43
-11
18
32
44
46
45
41
35
32
29
26
22
19
22
25
27
27
32
33
31
30
28
29
32
25
25
21
19
18
25
23
25
26
24
23
20
12
8
-2
-4
-4
-5
-5
-5
-3
2
6
12
13
13
14
13
12
9
10
7
9
9
7
-2
-5
-1
-2
4
3
4
9
7
9
9
9
-5
0
1
5
15
20
16
2
-18
-35
-56
-81
-94
-100
-90
-72
-44
-17
12
27
38
38
46
52
51
52
52
49
36
31
33
32
32
25
20
11
-1
-5
-5
4
10
7
-4
-10
-7
4
3
-6
-17
-36
-51
-61
-64
-62
-56
-47
-37
-29
-25
-22
-21
-19
-19
-20
-26
-29
-28
-28
-25
-18
-12
-16
-17
-20
-20
-21
-18
-17
-16
-19
-22
-17
-14
-7
1
3
4
3
-4
0
5
10
15
12
5
-9
-32
-60
-88
-104
-105
-85
-59
-33
-13
2
11
15
12
12
9
9
9
7
7
6
9
10
9
11
14
12
11
7
5
9
11
9
10
12
11
11
14
10
7
3
4
4
1
-2
-4
-8
-16
-16
-16
-16
-13
-6
-6
-3
-4
-4
0
3
2
4
10
11
11
12
8
10
9
4
8
8
8
9
18
15
11
12
10
7
10
16
23
30
32
35
30
19
1
-21
-49
-72
-89
-88
-70
-45
-17
7
23
29
36
35
40
36
35
32
24
21
22
20
15
12
5
-1
-8
-8
-9
-7
-8
-11
-16
-19
-26
-31
-34
-36
-40
-51
-59
-69
-66
-59
-61
-64
-65
-62
-62
-67
-70
-63
-61
-62
-56
-59
-47
-39
-35
-37
-34
-29
-31
-32
-29
-31
-28
-22
-21
-17
-12
-10
-8
-8
-9
-3
3
9
13
9
7
8
11
16
20
13
-2
-25
-56
-85
-113
-127
-118
-94
-53
-20
6
24
32
35
35
33
26
21
18
18
16
12
7
9
11
12
16
12
12
12
11
8
12
13
12
11
13
14
15
16
20
15
11
9
7
7
5
2
4
3
5
7
11
10
8
11
10
12
12
12
12
14
14
15
18
15
20
16
10
10
0
-5
1
-2
-3
1
1
4
-7
-3
-12
-16
-18
-15
-9
-5
-13
-22
-39
-55
-70
-87
-96
-93
-79
-53
-27
4
30
48
60
65
71
73
74
75
72
69
71
68
68
58
54
46
39
34
28
22
14
11
6
-6
-17
-25
-31
-35
-36
-40
-45
-48
-48
-40
-28
-23
-21
-21
-23
-31
-32
-34
-31
-18
-16
-8
-9
-7
-3
-13
-21
-25
-23
-23
-19
-18
-23
-25
-22
-23
-15
-7
-1
4
9
14
17
21
23
21
26
29
38
43
41
32
9
-24
-59
-86
-106
-116
-109
-82
-49
-23
0
17
24
27
21
23
22
18
16
14
14
11
11
11
8
7
6
10
13
16
19
17
20
21
18
18
13
11
8
8
6
6
4
3
0
-5
-9
-6
-13
-13
-6
-6
0
4
2
2
0
3
2
2
8
5
11
12
15
11
15
15
15
18
9
8
7
9
8
7
12
7
7
8
9
10
15
22
23
26
21
14
2
-20
-49
-63
-68
-64
-46
-19
2
17
31
43
44
40
37
35
31
25
26
25
25
21
23
15
10
4
-3
-7
-6
-12
-22
-26
-30
-33
-36
-42
-43
-45
-46
-49
-55
-58
-60
-73
-72
-73
-77
-79
-85
-92
-94
-93
-85
-76
-68
-61
-60
-60
-55
-50
-45
-42
-36
-37
-37
-35
-33
-25
-25
-28
-30
-30
-19
-11
-15
-9
-11
-9
-9
-9
-9
0
1
1
-1
-8
-22
-42
-73
-91
-114
-130
-130
-117
-94
-72
-46
-28
-12
-2
7
16
21
19
20
21
19
20
17
10
10
7
8
12
11
10
12
12
11
11
10
6
5
6
3
4
3
1
1
-4
-6
-12
-11
-10
-14
-14
-14
-13
-8
-4
1
5
8
10
13
16
17
18
17
7
4
4
3
1
-4
-7
-13
-9
-11
-20
-33
-32
-31
-25
-21
-19
-14
-7
2
9
23
27
24
15
4
-10
-33
-50
-60
-59
-41
-12
16
33
45
52
57
53
49
44
39
34
34
32
29
30
29
22
20
19
14
10
7
7
-2
-3
-2
-8
-9
-11
-15
-21
-27
-37
-37
-49
-49
-53
-62
-73
-84
-82
-80
-80
-81
-79
-63
-58
-52
-60
-69
-70
-68
-58
-48
-48
-42
-41
-40
-45
-45
-44
-39
-37
-36
-30
-31
-24
-26
-20
-20
-15
-8
-6
1
16
23
33
31
15
-2
-24
-52
-76
-96
-96
-78
-53
-24
2
16
19
18
22
20
17
21
23
21
19
19
16
12
9
11
17
19
19
15
12
9
7
11
5
3
10
9
11
8
15
12
7
10
10
6
4
0
-5
-5
-2
0
4
9
15
19
20
20
24
21
21
21
20
20
19
19
19
18
17
18
21
20
15
21
23
19
16
15
9
6
-1
0
2
8
17
16
18
11
0
-23
-40
-67
-84
-95
-88
-65
-34
-11
7
22
32
35
38
37
38
26
21
19
18
17
19
15
15
11
11
10
10
4
-2
-2
-5
-5
-8
-12
-10
-14
-19
-20
-23
-26
-36
-41
-49
-51
-51
-55
-60
-60
-70
-73
-77
-78
-68
-63
-61
-52
-49
-49
-49
-42
-41
-35
-32
-24
-18
-13
-15
-11
-8
-6
-3
-7
-9
-10
-2
-3
-1
-2
-4
-2
3
11
13
7
-3
-25
-44
-69
-94
-117
-116
-103
-79
-48
-21
1
18
29
30
32
33
33
36
31
31
30
27
28
21
14
10
4
6
5
8
5
2
4
0
3
2
1
-5
-4
-9
-10
-15
-18
-22
-24
-28
-32
-31
-31
-26
-32
-30
-36
-33
-29
-24
-16
-11
-5
-2
7
14
17
13
11
10
7
12
12
5
6
12
9
10
12
7
7
10
6
9
10
15
24
30
35
32
15
2
-19
-42
-63
-78
-74
-55
-26
-2
20
39
52
56
60
63
59
56
50
41
42
41
37
33
36
36
36
34
28
23
23
18
18
20
16
9
-1
-10
-11
-18
-22
-31
-28
-29
-33
-38
-44
-50
-59
-70
-71
-74
-76
-80
-83
-87
-86
-84
-80
-74
-73
-70
-69
-68
-64
-60
-59
-53
-53
-51
-40
-31
-30
-32
-33
-33
-34
-34
-38
-37
-33
-30
-20
-10
2
5
-1
-15
-29
-49
-72
-86
-90
-91
-68
-42
-19
-5
8
12
16
15
16
17
15
13
14
16
17
18
20
19
18
16
13
11
13
9
7
9
11
11
7
9
3
3
2
0
-2
-3
0
-3
-6
-6
-7
-11
-12
-10
-9
-2
-3
-5
4
9
12
18
19
23
33
34
34
31
31
33
32
34
30
32
27
28
28
33
31
26
23
22
24
26
27
31
35
35
40
27
14
-2
-24
-50
-72
-88
-88
-70
-34
-7
19
38
52
64
70
72
74
73
71
66
60
53
47
46
39
35
31
29
25
26
24
25
20
23
19
20
13
13
7
1
-2
-4
-6
-13
-20
-29
-34
-36
-40
-41
-45
-44
-45
-43
-43
-41
-40
-44
-55
-55
-52
-51
-53
-53
-44
-40
-46
-50
-50
-50
-43
-30
-18
-16
-12
-9
-4
1
-3
-4
-3
-2
4
12
16
13
5
-14
-34
-59
-83
-96
-91
-64
-32
-2
18
29
32
34
31
31
26
21
19
18
16
16
20
21
18
20
12
4
8
1
1
0
-2
-2
-1
-2
-3
-6
-4
-6
-10
-10
-8
-12
-16
-16
-21
-17
-18
-13
-11
-8
-4
-3
1
7
8
4
-3
-3
3
7
15
19
26
28
33
37
38
37
40
40
44
43
44
37
37
36
40
37
39
39
41
47
52
51
45
29
10
-22
-53
-83
-102
-101
-83
-56
-28
-5
18
27
37
37
44
41
39
34
40
43
47
46
39
35
31
28
19
15
16
17
16
15
12
3
5
1
3
1
-3
-7
-14
-16
-21
-24
-28
-31
-33
-32
-40
-44
-44
-45
-45
-43
-33
-17
-15
-27
-46
-58
-62
-65
-63
-59
-60
-62
-64
-68
-69
-61
-57
-55
-45
-35
-30
-21
-16
-14
-15
-11
-10
-9
-13
-18
-23
-37
-53
-70
-93
-115
-131
-140
-140
-120
-90
-56
-21
6
27
39
42
42
44
42
39
36
27
25
18
16
14
13
15
24
24
23
19
16
15
16
14
10
6
3
-7
-6
-10
-13
-19
-20
-22
-23
-22
-17
-16
-15
-17
-13
-14
-9
-6
-5
-7
-3
2
8
6
8
8
9
7
8
7
9
15
20
22
23
27
31
35
31
23
20
16
16
14
17
21
25
29
27
16
-1
-28
-57
-82
-102
-105
-91
-58
-30
-9
11
28
31
28
27
24
20
20
22
25
23
19
23
23
30
34
30
29
17
11
8
5
1
-2
-5
0
2
-1
3
1
1
-7
-12
-23
-28
-35
-36
-34
-42
-42
-44
-44
-48
-44
-43
-44
-43
-39
-34
-38
-38
-41
-47
-53
-58
-62
-65
-64
-65
-70
-66
-56
-47
-44
-46
-45
-43
-37
-33
-27
-18
-13
-7
-6
-9
-25
-45
-69
-99
-123
-136
-133
-110
-76
-46
-19
2
12
22
27
36
39
40
37
36
35
32
30
28
23
20
17
15
19
20
20
24
17
17
13
16
10
9
10
12
4
2
-7
-13
-21
-25
-30
-32
-37
-35
-35
-37
-31
-30
-25
-22
-19
-13
-11
-8
-4
2
11
14
12
12
13
12
17
18
16
19
23
23
26
28
33
32
35
31
28
26
32
35
47
48
42
27
3
-26
-52
-79
-93
-88
-71
-43
-17
1
14
22
25
25
23
19
20
16
18
20
27
29
38
38
43
48
53
48
47
45
39
37
28
23
15
13
11
7
8
5
3
-5
-7
-10
-17
-17
-23
-26
-28
-29
-26
-22
-18
-15
-19
-22
-21
-24
-33
-28
-36
-36
-37
-38
-38
-39
-43
-43
-46
-47
-49
-51
-47
-47
-47
-42
-30
-25
-31
-26
-20
-6
1
2
-6
-16
-33
-58
-88
-110
-125
-116
-96
-68
-37
-19
2
14
21
30
31
38
45
48
40
38
34
30
22
22
20
16
12
4
4
6
6
7
3
2
-1
-4
-11
-11
-15
-20
-18
-24
-29
-28
-29
-33
-28
-30
-28
-26
-24
-24
-20
-14
-13
-9
-2
0
6
10
13
16
19
19
21
20
22
19
17
22
22
24
28
34
35
40
44
44
40
43
45
56
59
62
51
37
19
-4
-29
-48
-60
-63
-43
-14
13
32
40
50
48
45
45
47
47
41
41
36
30
32
32
34
33
32
33
26
27
24
23
17
14
10
10
5
2
2
-2
-5
-8
-12
-16
-19
-22
-25
-33
-31
-36
-38
-32
-35
-33
-35
-36
-36
-35
-33
-36
-36
-45
-46
-46
-39
-41
-43
-50
-56
-55
-49
-51
-47
-47
-44
-46
-45
-44
-46
-51
-48
-44
-37
-24
-22
-31
-46
-62
-84
-108
-131
-148
-152
-142
-121
-93
-61
-35
-13
4
13
26
31
36
38
43
42
40
38
33
28
24
12
-2
-6
-8
-11
-10
-6
-3
-6
-7
-3
-5
-7
-11
-15
-20
-22
-23
-27
-25
-28
-29
-26
-29
-32
-27
-24
-23
-23
-16
-15
-12
-10
-6
-7
-2
-2
1
4
4
6
7
4
2
4
3
3
11
13
17
21
20
21
21
22
25
31
37
42
36
25
14
-10
-34
-65
-87
-90
-76
-55
-28
-3
14
21
26
29
28
29
29
30
30
24
25
24
20
18
18
23
29
32
34
33
31
34
33
28
22
16
12
6
3
2
2
-7
-7
-15
-21
-24
-23
-24
-24
-22
-21
-21
-18
-16
-19
-19
-14
-17
-12
-11
-10
-14
-15
-19
-23
-27
-30
-35
-39
-38
-38
-36
-41
-43
-45
-45
-45
-46
-46
-45
-47
-42
-40
-34
-35
-36
-48
-66
-87
-104
-122
-133
-122
-98
-69
-44
-25
-10
-5
4
5
10
13
9
7
11
12
6
1
5
4
3
3
2
1
7
7
11
7
10
10
9
9
5
4
4
1
-9
-15
-18
-25
-25
-28
-22
-22
-23
-30
-36
-42
-38
-35
-31
-25
-22
-18
-11
-5
5
10
12
8
7
7
7
10
13
18
19
22
29
31
39
48
57
59
59
65
73
78
88
84
74
58
34
10
-21
-48
-63
-60
-45
-15
10
39
49
57
55
50
39
31
27
30
29
25
27
25
26
23
28
29
32
38
40
42
47
49
46
44
40
31
23
20
11
11
10
6
4
-3
-10
-12
-11
-12
-11
-9
-11
-8
-8
-8
-9
-10
-15
-11
-13
-14
-17
-21
-20
-25
-24
-20
-16
-15
-16
-14
-15
-17
-15
-17
-20
-25
-28
-33
-35
-34
-33
-31
-29
-38
-54
-75
-101
-132
-156
-167
-161
-133
-95
-58
-32
-12
0
7
11
18
17
18
15
13
12
12
13
16
13
18
25
33
37
36
30
25
19
19
22
19
19
18
14
10
7
3
0
-5
-9
-15
-17
-20
-18
-22
-23
-23
-22
-22
-21
-21
-18
-13
-13
-5
0
5
8
8
8
13
15
18
21
23
27
27
26
27
24
24
26
26
25
21
23
19
24
30
32
35
27
16
-4
-23
-52
-77
-85
-83
-61
-33
-6
19
36
44
47
52
49
46
43
39
39
39
38
32
26
24
15
15
10
14
15
17
18
17
16
20
26
31
33
30
29
20
10
2
-4
-11
-14
-12
-14
-15
-12
-10
-11
-11
-16
-15
-17
-18
-16
-17
-14
-15
-15
-17
-16
-21
-23
-28
-28
-27
-26
-29
-32
-30
-28
-25
-26
-29
-28
-32
-35
-24
-19
-14
-13
-18
-23
-42
-68
-101
-132
-157
-163
-143
-108
-65
-26
4
18
25
26
27
25
20
17
14
10
12
13
9
16
15
24
22
23
25
20
19
14
12
8
6
2
-8
-14
-23
-29
-29
-32
-29
-29
-28
-34
-34
-34
-36
-36
-30
-28
-27
-25
-25
-19
-22
-19
-19
-14
-16
-16
-13
-15
-13
-11
-8
-4
-2
4
4
10
8
5
5
6
4
5
7
8
10
17
23
28
26
20
1
-20
-44
-68
-86
-97
-89
-67
-40
-19
8
23
30
37
34
37
40
40
34
30
26
19
15
15
16
16
15
14
16
6
-2
3
2
9
8
11
14
16
22
32
38
42
45
44
35
30
20
13
13
10
8
10
12
16
17
17
19
16
14
22
17
19
17
18
18
16
14
13
10
9
7
7
0
-4
-13
-15
-17
-21
-23
-26
-29
-28
-28
-23
-25
-34
-48
-75
-108
-133
-154
-160
-152
-131
-105
-79
-57
-35
-22
-14
-10
-18
-23
-21
-18
-19
-19
-19
-25
-26
-26
-28
-33
-31
-27
-23
-18
-13
-2
2
7
9
7
2
6
1
-7
-12
-17
-22
-33
-32
-34
-35
-34
-32
-32
-35
-35
-33
-28
-28
-24
-20
-20
-17
-17
-16
-17
-19
-17
-19
-16
-9
-9
-4
1
2
4
6
9
10
12
12
13
18
15
21
28
33
35
35
17
-12
-32
-65
-93
-105
-100
-80
-51
-16
12
25
37
36
38
34
32
27
30
29
28
30
28
22
23
23
22
23
20
16
12
10
13
11
10
14
18
18
21
22
25
25
20
16
16
12
7
7
6
-2
-6
-5
-4
-4
-5
-6
-7
-10
-5
0
5
10
10
5
-3
-3
1
-1
8
12
7
7
2
-9
-12
-14
-17
-19
-19
-20
-12
-3
6
10
1
-12
-32
-61
-94
-133
-164
-182
-167
-138
-107
-72
-55
-41
-24
-19
-8
-2
-2
-2
-8
-10
-11
-10
-8
-7
-11
-9
-12
-14
-12
-14
-12
-10
-11
-6
-11
-10
-6
0
-3
-8
-12
-15
-23
-28
-34
-36
-43
-49
-50
-52
-48
-46
-46
-45
-41
-36
-29
-27
-29
-26
-27
-23
-21
-23
-21
-20
-15
-18
-17
-12
-11
-10
-7
-4
0
1
3
7
11
16
17
21
29
33
36
23
13
-12
-34
-60
-83
-95
-91
-62
-34
-2
26
42
52
58
57
54
50
45
43
40
39
38
35
38
36
33
29
30
26
21
18
16
14
11
10
7
10
10
10
9
10
8
5
4
2
5
3
4
5
4
4
-3
-12
-12
-18
-17
-12
-9
-4
-2
-3
1
1
-3
-6
-8
-9
-8
-4
-4
0
4
7
12
14
15
8
3
-1
-4
-7
-5
2
5
2
-15
-31
-52
-86
-120
-147
-168
-165
-144
-111
-80
-57
-41
-28
-23
-22
-23
-24
-16
-8
-9
-7
-3
-6
-5
-3
-3
-2
-4
-7
-9
-10
-10
0
-2
4
6
6
4
2
-4
-5
-12
-13
-14
-17
-17
-18
-23
-24
-32
-33
-32
-29
-31
-40
-39
-45
-46
-38
-36
-34
-31
-31
-30
-37
-32
-38
-41
-39
-39
-34
-35
-32
-26
-24
-24
-25
-20
-18
-15
-12
-4
2
9
10
3
-11
-29
-50
-77
-111
-127
-124
-100
-67
-34
-9
16
27
36
38
38
39
43
42
44
45
45
39
34
33
33
31
29
28
23
24
20
19
17
20
14
11
13
11
10
8
7
7
0
-5
-7
-8
-7
-7
2
7
18
19
31
36
39
36
32
30
24
23
17
21
21
19
19
16
20
19
21
22
32
32
36
36
32
29
24
22
18
21
28
26
28
20
5
-12
-36
-64
-91
-116
-130
-126
-98
-71
-45
-25
-20
-8
-12
-12
-14
-18
-15
-16
-14
-14
-15
-19
-21
-16
-10
-6
-8
-6
-7
-7
-5
-6
-6
-2
-5
-9
-13
-21
-26
-27
-25
-26
-23
-20
-15
-10
-9
-8
-5
-7
-9
-10
-9
-7
-8
-2
-7
-11
-11
-10
-9
-8
1
3
8
11
11
11
11
10
14
7
9
9
10
12
13
16
17
24
29
37
38
36
25
8
-14
-39
-60
-73
-71
-57
-32
2
30
50
62
73
75
73
69
68
67
65
66
67
64
64
67
64
58
56
51
44
44
35
36
38
38
36
36
32
34
33
29
28
24
26
15
9
4
9
8
12
7
2
0
1
13
21
32
38
47
54
55
56
49
40
28
22
18
12
10
12
13
20
23
24
21
23
26
27
24
24
27
27
28
35
31
24
1
-29
-61
-98
-130
-151
-149
-125
-87
-51
-26
-13
-7
-3
-9
-8
-17
-24
-27
-37
-40
-42
-35
-41
-36
-33
-38
-33
-33
-31
-22
-23
-18
-21
-16
-16
-16
-23
-24
-30
-31
-32
-33
-35
-42
-48
-49
-44
-43
-32
-28
-30
-29
-28
-32
-27
-26
-26
-31
-35
-33
-29
-26
-24
-22
-22
-19
-17
-17
-13
-17
-19
-21
-23
-23
-22
-17
-20
-25
-28
-36
-41
-44
-39
-44
-56
-69
-87
-102
-126
-138
-150
-151
-128
-96
-69
-41
-16
9
26
36
40
40
39
44
49
51
52
47
45
41
39
41
38
38
37
35
34
30
27
28
20
22
18
21
16
9
6
6
5
5
5
3
-1
5
6
8
11
17
22
27
26
29
26
30
29
25
24
22
20
25
27
30
32
29
26
28
25
28
28
24
23
25
24
21
17
18
19
22
20
14
2
-18
-43
-75
-104
-125
-135
-124
-96
-70
-42
-22
-15
-9
-13
-16
-29
-31
-33
-31
-32
-27
-30
-27
-26
-21
-20
-18
-16
-13
-9
-10
-7
-8
-6
-11
-17
-19
-22
-24
-24
-25
-23
-24
-26
-30
-29
-26
-25
-24
-18
-14
-11
-10
-12
-19
-21
-24
-28
-28
-28
-26
-22
-17
-12
-9
-11
-11
-11
-13
-10
-9
-6
-5
0
-4
0
-2
0
-1
-5
2
11
15
22
24
15
-3
-21
-47
-74
-93
-99
-84
-61
-28
-6
15
30
38
41
46
47
45
49
50
52
53
56
54
54
53
55
57
57
54
50
47
42
44
40
35
30
25
24
21
13
8
5
2
-4
-11
-14
-21
-21
-20
-19
-18
-17
-13
-8
-6
-5
-3
10
21
30
33
36
32
33
33
29
31
32
34
33
29
26
24
21
21
23
18
17
16
22
26
29
36
32
28
10
-18
-51
-80
-108
-132
-140
-130
-105
-74
-46
-30
-23
-23
-27
-27
-27
-28
-33
-32
-36
-40
-39
-41
-41
-44
-36
-36
-37
-31
-28
-27
-26
-29
-19
-19
-20
-20
-23
-25
-26
-25
-26
-33
-33
-35
-36
-41
-37
-34
-26
-20
-16
-15
-14
-16
-16
-14
-20
-19
-21
-21
-21
-26
-32
-30
-26
-22
-25
-19
-20
-18
-16
-17
-11
-12
-12
-10
-9
-6
-2
1
8
19
20
21
9
-2
-24
-47
-77
-99
-105
-91
-66
-35
-5
14
30
35
39
40
40
41
42
45
46
46
48
47
47
49
47
50
47
49
40
42
37
41
31
32
27
24
16
13
13
8
4
2
0
-17
-49
-81
-96
-90
-76
-61
-44
-34
-22
-4
3
19
31
44
48
56
57
56
54
44
40
39
36
32
36
36
39
44
36
36
36
37
41
44
46
43
49
52
48
35
20
-4
-32
-66
-92
-115
-113
-101
-71
-43
-23
-5
4
6
2
-1
-5
-15
-23
-28
-28
-23
-21
-14
-15
-15
-14
-13
-11
-12
-13
-18
-18
-13
-9
-5
2
0
-3
-7
-15
-17
-22
-22
-26
-28
-32
-33
-32
-29
-26
-28
-26
-21
-18
-17
-12
-4
-1
2
0
-1
-3
-9
-11
-12
-14
-10
-15
-14
-15
-17
-19
-20
-16
-16
-15
-17
-16
-15
-13
-9
0
7
10
10
-8
-28
-50
-81
-103
-113
-110
-85
-52
-27
0
12
25
23
22
26
29
31
35
42
42
46
42
37
37
32
35
37
40
39
31
29
32
28
28
26
26
25
19
18
16
8
7
0
-4
-10
-12
-14
-16
-14
-15
-14
-9
-10
-4
2
11
19
23
31
40
42
41
39
30
24
21
16
9
8
12
7
3
6
3
5
8
11
9
7
3
8
12
15
17
10
-6
-28
-56
-86
-118
-140
-151
-151
-125
-100
-73
-48
-36
-32
-28
-29
-33
-35
-39
-41
-41
-42
-44
-44
-47
-45
-48
-44
-38
-32
-29
-25
-16
-14
-16
-15
-15
-19
-25
-23
-29
-32
-37
-39
-43
-47
-56
-63
-60
-62
-61
-58
-51
-46
-43
-38
-32
-23
-21
-25
-33
-38
-41
-45
-47
-48
-44
-40
-32
-30
-30
-32
-30
-32
-27
-24
-24
-26
-26
-27
-29
-27
-23
-16
-10
-5
-5
-8
-25
-45
-70
-93
-107
-116
-100
-74
-45
-14
7
19
29
35
37
39
40
39
38
40
35
38
42
35
33
31
27
26
24
26
23
19
20
19
16
14
9
13
12
7
8
4
-4
-10
-13
-16
-16
-13
-16
-16
-14
-9
-4
0
6
15
21
26
33
41
49
54
59
60
54
43
37
36
34
34
28
26
30
31
32
31
34
27
29
28
23
26
32
33
27
10
-10
-37
-69
-101
-117
-122
-106
-77
-51
-29
-16
-13
-9
-4
-9
-15
-14
-17
-21
-23
-28
-31
-30
-33
-34
-35
-36
-32
-27
-25
-28
-28
-22
-25
-26
-26
-30
-36
-36
-38
-44
-41
-45
-45
-48
-56
-52
-50
-45
-40
-34
-23
-13
-11
-8
-10
-8
-4
-4
-4
-10
-15
-17
-21
-14
-17
-15
-13
-15
-20
-21
-18
-18
-21
-22
-19
-18
-16
-14
-10
-7
3
11
21
18
12
-10
-28
-50
-77
-92
-102
-89
-59
-33
-3
21
37
50
56
56
52
47
44
46
47
50
54
56
56
56
53
54
49
49
47
47
41
41
38
40
36
34
32
33
28
28
23
22
13
9
1
-4
-4
-3
-4
-5
-9
-6
-6
-4
4
12
16
21
31
37
44
42
28
0
-27
-45
-61
-66
-67
-58
-46
-32
-18
-7
4
10
16
15
22
23
27
35
35
34
26
3
-14
-36
-65
-90
-117
-131
-120
-96
-68
-39
-17
0
10
9
10
4
4
-4
-8
-9
-13
-11
-11
-16
-13
-18
-12
-7
-7
-4
-6
-7
-5
-1
4
3
5
5
6
-3
-12
-20
-24
-28
-28
-30
-36
-37
-35
-27
-27
-20
-23
-17
-15
-17
-15
-13
-15
-10
-5
-1
2
3
-1
1
8
7
7
8
5
3
-2
-4
2
-3
-3
-4
-5
0
1
3
11
15
16
6
-2
-24
-43
-71
-87
-100
-97
-76
-47
-20
6
15
30
36
41
41
38
33
28
32
35
39
39
39
38
40
40
36
32
28
29
26
22
20
17
16
17
14
11
16
13
8
8
9
4
-2
-6
-9
-4
-11
-11
-13
-16
-20
-23
-19
-16
-6
10
18
22
26
25
34
36
35
27
25
28
33
35
33
35
38
38
35
35
34
39
39
39
42
45
46
43
30
11
-13
-41
-77
-96
-109
-102
-77
-54
-32
-16
-9
-4
-2
-5
-8
-5
-8
-16
-25
-30
-35
-36
-35
-25
-21
-26
-28
-34
-36
-35
-28
-29
-26
-24
-25
-19
-18
-16
-19
-20
-21
-23
-29
-31
-34
-39
-46
-48
-45
-44
-37
-34
-29
-27
-25
-18
-14
-11
-6
-9
-8
-10
-15
-14
-13
-9
-6
-4
-6
-5
-6
-3
2
-5
-3
1
-3
-9
-8
-9
-5
-4
-1
5
6
-7
-29
-56
-95
-123
-148
-144
-130
-99
-55
-19
10
29
39
46
49
51
49
48
41
37
39
41
38
34
36
33
34
31
34
30
30
30
32
27
19
16
16
17
15
12
5
-3
-4
-2
-4
-3
-13
-17
-21
-20
-23
-22
-21
-21
-23
-24
-22
-16
-8
2
12
22
33
47
56
59
66
65
68
63
58
52
45
47
47
48
45
41
39
34
32
30
35
38
33
18
2
-25
-57
-95
-126
-150
-157
-145
-114
-82
-55
-40
-23
-18
-12
-10
-3
-1
4
4
-4
-3
-6
-6
-9
-18
-18
-21
-20
-19
-10
-12
-11
-11
-13
-11
-11
-10
-9
-4
-10
-12
-16
-24
-31
-38
-45
-46
-52
-49
-45
-45
-49
-40
-35
-28
-22
-22
-16
-23
-19
-20
-26
-26
-20
-17
-18
-22
-22
-24
-16
-18
-15
-17
-21
-26
-28
-24
-22
-20
-15
-13
-7
6
12
15
4
-7
-25
-53
-73
-99
-115
-113
-93
-67
-37
-19
3
11
19
16
10
13
12
12
13
15
21
27
32
36
42
42
37
35
38
38
36
35
31
32
27
23
18
15
13
13
12
15
15
8
5
10
12
8
-4
-9
-17
-21
-26
-24
-26
-28
-30
-31
-21
-14
-6
3
11
20
24
29
29
24
21
20
10
6
7
15
13
18
16
19
14
13
19
23
32
36
35
21
3
-27
-61
-86
-105
-111
-98
-79
-53
-34
-26
-12
-7
-2
-5
-6
-14
-16
-21
-24
-35
-41
-39
-37
-35
-36
-35
-38
-45
-45
-40
-40
-41
-39
-36
-30
-28
-25
-24
-22
-27
-23
-25
-27
-32
-31
-35
-38
-38
-39
-40
-33
-34
-36
-27
-25
-17
-12
-7
0
-3
-3
-6
-6
-5
-6
-8
-11
-8
-7
1
12
17
20
22
25
21
17
11
10
11
17
19
22
24
15
-1
-26
-61
-95
-123
-137
-135
-110
-72
-31
9
34
49
57
59
57
56
60
62
62
57
58
64
60
54
49
46
44
41
41
45
45
47
45
39
40
39
36
30
25
22
16
16
19
19
15
15
11
8
-2
-13
-11
-13
-14
-17
-11
-10
-7
-7
0
1
4
7
9
15
23
36
38
34
31
27
26
24
19
15
16
14
19
21
21
19
20
21
24
32
31
21
-2
-29
-60
-97
-121
-136
-135
-114
-87
-59
-35
-20
-14
-7
2
3
6
9
6
6
-1
-2
-9
-14
-18
-22
-25
-23
-17
-14
-15
-20
-22
-19
-11
-8
-7
-7
-5
-9
-6
-12
-15
-16
-24
-33
-34
-38
-40
-45
-49
-43
-47
-38
-32
-27
-21
-17
-9
-4
-4
1
4
4
4
3
2
1
-7
-5
-11
-10
-14
-15
-15
-15
-16
-16
-19
-19
-23
-19
-21
-17
-11
-12
-20
-41
-65
-100
-138
-164
-172
-160
-128
-87
-44
-7
15
36
40
42
39
41
41
42
41
39
34
39
39
41
44
43
43
42
48
48
48
42
40
42
43
40
34
32
26
26
26
17
12
7
1
-4
-5
-5
-3
-3
-6
-4
-6
-6
-10
-7
-9
-8
-9
-9
-6
-8
-5
-8
-9
-6
-3
1
6
16
16
19
17
17
14
12
9
8
7
6
4
4
11
15
17
15
1
-19
-40
-68
-95
-119
-127
-115
-85
-56
-36
-24
-16
-12
-15
-18
-23
-31
-32
-32
-31
-33
-29
-30
-35
-34
-39
-44
-56
-59
-54
-49
-47
-47
-45
-45
-39
-35
-37
-42
-47
-49
-47
-40
-41
-35
-34
-35
-41
-46
-44
-43
-44
-41
-40
-36
-29
-23
-21
-15
-13
-11
-9
-15
-17
-11
-14
-14
-21
-25
-24
-27
-23
-25
-25
-24
-26
-22
-24
-20
-21
-17
-14
-12
0
4
1
-12
-25
-49
-73
-100
-117
-119
-102
-74
-45
-16
1
12
19
23
25
28
29
27
30
27
26
28
33
36
34
28
31
33
37
36
36
35
40
37
36
32
30
28
22
20
15
14
8
4
-4
-7
-7
-9
-9
-2
-1
-3
-5
-5
-9
-14
-11
-12
-12
-10
-5
-2
-2
-3
-6
-6
-6
-3
9
15
24
29
31
26
24
26
27
27
32
34
35
43
48
52
51
44
22
0
-27
-57
-74
-86
-74
-51
-21
-1
14
26
32
34
31
28
24
20
17
13
5
-6
-15
-20
-28
-32
-35
-36
-37
-33
-37
-37
-31
-25
-26
-22
-24
-28
-30
-25
-24
-25
-31
-30
-33
-31
-33
-35
-39
-44
-42
-47
-43
-37
-32
-29
-22
-21
-21
-15
-6
-2
11
16
13
10
9
5
3
-1
3
-3
-1
2
8
10
16
16
19
15
16
11
13
16
20
24
17
5
-16
-39
-66
-96
-113
-116
-99
-69
-41
-12
9
23
35
40
40
42
45
41
44
42
45
45
43
42
44
41
43
43
48
45
42
42
46
47
48
50
44
42
35
30
23
19
16
13
12
6
2
4
-1
6
7
0
-4
-11
-6
-11
-9
-9
-9
-6
-4
1
3
3
7
3
9
16
23
27
26
23
17
17
13
13
12
11
9
15
20
24
35
44
43
39
28
11
-11
-42
-67
-91
-97
-84
-49
-23
3
20
26
22
18
9
3
9
15
11
6
2
0
-7
-6
-15
-18
-20
-27
-21
-20
-21
-23
-24
-23
-20
-17
-17
-18
-17
-20
-25
-30
-28
-28
-29
-25
-25
-24
-25
-31
-32
-35
-38
-33
-33
-24
-20
-10
0
1
9
-1
-13
-10
-11
-12
-13
-11
-14
-14
-11
-7
-3
8
12
11
3
-1
-2
0
5
11
20
21
18
10
-9
-26
-53
-73
-101
-116
-118
-103
-69
-30
1
22
37
45
49
49
49
47
43
41
38
36
38
34
33
32
33
31
30
35
34
37
35
32
28
30
31
26
22
20
20
15
14
9
6
5
1
-3
-11
-12
-14
-13
-9
-10
-7
-7
-12
-15
-22
-21
-21
-19
-18
-20
-19
-23
-17
-15
-12
-8
-5
2
6
8
14
13
15
10
7
0
-7
-6
-8
0
7
13
13
-1
-13
-30
-58
-87
-115
-127
-126
-102
-73
-47
-25
-17
-9
-12
-12
-13
-14
-17
-24
-35
-43
-53
-53
-48
-48
-41
-39
-38
-44
-49
-52
-47
-41
-41
-40
-39
-43
-47
-48
-51
-48
-35
-31
-24
-28
-33
-35
-37
-35
-35
-41
-39
-35
-29
-28
-23
-24
-22
-27
-25
-27
-19
-13
-5
-3
2
-1
-3
-2
-2
-3
-6
-3
-6
-7
-9
-10
-15
-17
-13
-9
1
6
12
15
18
13
-4
-22
-51
-77
-101
-117
-111
-89
-56
-30
-5
9
20
27
27
33
29
33
31
29
30
29
30
32
27
28
26
20
17
18
23
21
24
21
20
20
18
15
14
10
3
-4
-7
-14
-13
-15
-20
-22
-20
-19
-15
-11
-9
-5
-10
-12
-9
-10
-7
-9
-6
-4
-10
-9
-9
-12
-7
-4
2
2
6
10
15
23
27
34
37
39
24
4
-15
-29
-28
-24
-21
-18
-28
-43
-56
-77
-100
-110
-110
-95
-69
-38
0
20
35
45
44
41
38
37
33
27
28
26
23
11
3
-9
-14
-16
-25
-31
-35
-24
-21
-15
-17
-19
-20
-24
-19
-20
-23
-24
-21
-19
-19
-22
-26
-24
-24
-22
-24
-26
-30
-27
-26
-19
-16
-11
-7
-4
-3
0
2
8
10
10
7
5
-1
-1
-2
-5
-4
-2
-1
5
10
19
23
20
24
22
30
29
32
33
27
19
9
-11
-37
-69
-92
-110
-114
-105
-80
-48
-15
7
26
36
39
37
37
34
33
29
33
31
31
34
32
33
28
30
26
30
32
30
30
29
26
25
26
29
31
26
23
19
14
2
-5
-8
-11
-4
-5
-6
-6
-7
-4
0
-1
2
1
-2
2
-1
-7
-3
-3
-7
-11
-12
-8
-4
1
6
11
18
21
28
31
37
35
35
33
32
34
35
37
45
56
62
60
51
34
11
-17
-44
-69
-82
-73
-48
-21
4
17
24
28
25
29
27
21
11
7
0
-5
-3
-6
-7
-8
-17
-19
-23
-33
-37
-37
-35
-27
-15
-11
-15
-20
-27
-32
-35
-36
-36
-37
-39
-34
-37
-39
-38
-40
-44
-45
-40
-38
-31
-28
-26
-29
-26
-23
-20
-15
-9
-5
5
9
15
11
16
7
10
12
10
9
0
-9
-6
-1
4
7
10
7
11
13
15
15
7
1
-14
-34
-59
-84
-107
-112
-110
-87
-51
-22
0
17
27
38
38
37
41
39
39
35
38
37
33
31
30
28
23
19
18
18
22
19
15
9
5
6
7
7
11
12
9
5
-6
-10
-12
-14
-16
-19
-18
-21
-22
-20
-21
-18
-15
-13
-17
-20
-20
-20
-21
-18
-18
-19
-17
-21
-21
-14
-19
-13
-13
-9
-6
-5
-1
8
14
17
16
14
10
11
9
12
15
18
17
10
-5
-25
-47
-73
-96
-104
-97
-75
-48
-29
-6
6
8
5
-2
-4
-7
-13
-13
-13
-15
-16
-22
-25
-33
-33
-39
-47
-49
-52
-49
-49
-43
-43
-46
-48
-48
-48
-47
-45
-42
-43
-43
-41
-38
-40
-43
-40
-45
-44
-44
-41
-39
-38
-40
-38
-36
-32
-29
-25
-21
-15
-9
-5
-3
-7
-10
-9
-11
-16
-19
-24
-23
-19
-22
-22
-21
-22
-21
-16
-17
-7
-4
4
12
9
2
-14
-38
-66
-91
-111
-121
-109
-84
-52
-23
-4
13
15
19
22
25
25
28
29
31
32
31
29
28
21
16
15
15
16
14
17
17
23
29
31
32
25
16
4
-7
-17
-14
-15
-16
-16
-18
-21
-23
-24
-24
-22
-18
-12
-8
-9
-13
-16
-18
-15
-20
-15
-14
-13
-7
-7
-8
-10
-8
-9
-5
-5
-3
2
4
6
10
9
11
14
12
11
16
24
36
49
52
45
32
10
-20
-51
-75
-86
-81
-56
-31
-9
11
21
17
17
13
7
2
-4
-5
-5
-7
-10
-16
-17
-25
-25
-27
-35
-48
-51
-49
-41
-39
-43
-47
-43
-37
-34
-39
-43
-39
-35
-32
-32
-33
-32
-33
-31
-36
-37
-37
-34
-34
-35
-35
-30
-29
-24
-20
-23
-16
-11
-2
3
8
13
12
12
10
8
9
14
16
16
15
16
18
23
24
25
20
30
33
40
39
44
35
19
-5
-37
-65
-96
-121
-120
-103
-68
-30
-5
19
32
38
40
44
43
48
45
51
53
54
53
44
39
32
34
36
39
43
43
47
45
51
46
43
38
39
35
32
25
21
17
12
14
13
10
10
7
9
11
16
12
9
7
8
1
-1
-1
-7
-10
-12
-10
-11
-4
6
11
20
24
25
28
28
31
36
40
44
41
44
43
39
35
33
36
40
48
52
41
34
15
-5
-29
-56
-77
-86
-74
-47
-27
1
15
22
28
28
24
21
15
12
7
-1
2
-3
-7
-17
-26
-34
-34
-36
-39
-43
-44
-36
-30
-26
-26
-28
-22
-16
-20
-17
-21
-22
-21
-18
-19
-21
-25
-30
-32
-31
-37
-35
-41
-35
-33
-26
-24
-20
-22
-17
-13
1
9
8
16
16
11
9
4
3
6
0
-1
-5
-5
4
7
10
15
13
15
22
28
31
36
33
26
8
-17
-47
-74
-99
-107
-94
-62
-27
5
29
44
53
64
65
62
65
65
68
59
61
61
64
62
60
60
58
59
61
53
55
51
52
53
48
45
43
42
37
38
32
27
16
9
4
-2
-6
-9
-9
-11
-12
-9
-10
-8
-9
-13
-17
-18
-18
-19
-16
-18
-16
-19
-21
-21
-25
-24
-23
-16
-12
0
3
9
10
9
6
4
-4
-4
-8
-6
-7
8
7
8
2
-13
-36
-56
-86
-108
-123
-127
-110
-86
-58
-39
-26
-22
-20
-24
-27
-32
-33
-34
-39
-38
-44
-49
-58
-60
-61
-61
-55
-57
-56
-58
-56
-55
-55
-57
-54
-56
-54
-60
-59
-59
-47
-36
-28
-26
-31
-36
-39
-40
-47
-49
-45
-44
-46
-48
-49
-43
-41
-37
-39
-35
-24
-19
-13
-11
-9
-8
-11
-16
-13
-11
-13
-21
-24
-32
-34
-36
-37
-35
-36
-35
-31
-22
-14
0
5
3
-6
-27
-46
-70
-96
-117
-116
-94
-66
-36
-15
0
16
16
25
32
33
33
30
30
25
24
23
27
32
31
23
19
16
16
16
15
20
20
24
20
15
15
11
9
6
0
0
-10
-16
-21
-24
-24
-24
-20
-21
-19
-16
-19
-16
-16
-19
-16
-16
-19
-19
-19
-19
-25
-24
-24
-20
-15
-12
-12
-10
-16
-11
-10
-3
-5
5
6
9
12
14
18
20
25
29
30
22
9
-7
-31
-59
-80
-98
-96
-78
-51
-24
1
14
15
17
15
14
8
-1
-7
-18
-21
-22
-24
-29
-36
-37
-45
-53
-54
-54
-55
-52
-55
-55
-54
-55
-58
-56
-55
-56
-50
-47
-44
-41
-42
-42
-47
-45
-49
-56
-56
-52
-49
-45
-38
-28
-26
-22
-15
-13
-5
8
7
8
10
6
9
4
4
8
3
-5
-8
-9
-6
0
9
11
13
13
13
10
12
14
24
23
21
13
0
-29
-58
-89
-113
-120
-110
-87
-52
-22
0
19
27
33
37
44
50
50
46
47
49
53
50
48
48
49
45
41
41
35
36
37
35
37
35
30
30
27
26
27
20
18
12
5
1
-1
-2
4
-2
-6
-7
-2
-5
0
-9
-9
-10
-11
-7
-4
-9
-4
-4
0
-3
-4
-1
0
4
7
14
22
29
34
34
27
23
27
28
25
28
31
38
48
53
51
40
27
3
-23
-52
-75
-88
-83
-55
-27
-3
11
20
19
16
16
17
18
8
1
-9
-11
-17
-14
-8
-10
-21
-25
-29
-33
-28
-33
-30
-30
-30
-26
-21
-18
-17
-17
-12
-14
-14
-21
-24
-25
-22
-20
-25
-21
-23
-24
-27
-25
-18
-11
-10
-8
-11
-9
-14
-6
-4
-1
4
2
0
-6
-9
-15
-17
-17
-15
-15
-12
-5
2
8
8
9
7
13
14
19
23
26
19
11
-10
-28
-56
-88
-105
-113
-103
-78
-38
-17
3
20
29
32
36
39
39
44
46
43
45
44
45
39
35
38
37
44
45
48
48
44
39
32
27
25
25
26
33
29
27
23
18
16
12
10
9
3
4
7
9
8
10
7
6
5
3
-7
-9
-10
-9
-8
-10
-11
-10
-13
-7
-7
0
-3
0
2
6
9
13
13
17
16
12
8
5
12
19
24
29
31
19
5
-16
-40
-68
-94
-103
-104
-90
-62
-40
-23
-13
-2
5
1
-3
-8
-6
-8
-12
-15
-22
-19
-21
-27
-30
-37
-45
-49
-48
-46
-45
-48
-50
-44
-40
-38
-36
-39
-34
-25
-26
-25
-36
-35
-32
-33
-33
-35
-36
-36
-40
-46
-49
-46
-45
-40
-38
-34
-32
-23
-13
-11
-6
-1
4
-5
-11
-15
-15
-18
-17
-25
-22
-24
-25
-25
-24
-27
-32
-34
-25
-13
-2
5
6
3
-17
-29
-57
-81
-98
-112
-110
-89
-57
-27
-2
14
27
30
34
32
30
32
24
26
23
24
23
25
26
32
23
24
25
23
21
26
25
26
22
19
19
25
25
26
20
17
6
-3
-8
-11
-13
-7
-10
-8
-10
-10
-8
-11
-11
-11
-15
-12
-21
-22
-20
-15
-15
-12
-6
-1
2
-2
5
13
26
31
37
38
32
29
29
26
26
24
23
26
37
44
47
45
40
29
5
-20
-49
-70
-85
-78
-55
-24
-1
17
26
28
21
19
17
14
8
7
3
-4
-8
-14
-25
-26
-24
-26
-31
-31
-33
-30
-29
-32
-34
-27
-24
-23
-27
-26
-33
-24
-25
-24
-26
-32
-32
-28
-33
-31
-32
-29
-32
-28
-29
-24
-21
-16
-7
2
9
13
17
16
12
2
-5
-14
-16
-21
-16
-15
-13
-6
-2
5
1
0
-5
-3
2
4
3
6
8
10
6
-4
-23
-42
-68
-98
-114
-125
-113
-84
-46
-20
8
21
31
32
33
31
35
37
42
44
42
43
42
39
39
42
44
49
43
40
39
35
36
35
35
35
34
30
32
28
25
18
8
8
0
-4
-7
-9
-5
-3
1
2
0
-1
2
0
-4
-8
-4
-5
-4
0
2
-7
-8
-13
-12
-13
-7
2
11
21
27
29
32
27
25
24
21
24
20
24
27
39
50
48
37
21
2
-27
-54
-77
-88
-85
-69
-39
-17
1
14
21
21
11
4
3
-3
-5
-11
-18
-22
-18
-18
-16
-16
-17
-17
-21
-24
-24
-33
-31
-36
-43
-47
-42
-40
-27
-24
-29
-25
-24
-16
-15
-19
-15
-21
-23
-25
-28
-30
-28
-29
-26
-27
-30
-25
-25
-16
-11
-4
-2
2
6
1
-5
-2
-7
-12
-18
-13
-7
-5
1
3
2
1
6
4
7
4
3
12
14
12
3
-11
-34
-61
-86
-111
-123
-116
-97
-62
-38
-13
3
15
19
27
25
26
28
27
21
21
15
16
15
16
15
18
18
13
7
5
6
7
7
12
12
12
10
10
1
-1
-9
-13
-16
-21
-29
-27
-26
-20
-25
-23
-19
-20
-18
-17
-16
-16
-20
-12
-13
-8
-4
-6
-5
-5
-9
-8
-5
4
9
16
21
26
25
23
30
35
36
38
36
31
38
44
52
54
50
39
26
1
-23
-52
-67
-72
-60
-35
-9
14
30
38
36
33
29
28
24
16
17
12
3
-5
-7
-2
-4
-11
-19
-29
-35
-28
-26
-22
-16
-18
-22
-24
-31
-30
-33
-32
-37
-39
-41
-38
-36
-40
-42
-44
-42
-44
-45
-47
-50
-49
-45
-46
-45
-41
-38
-31
-26
-15
-8
-6
-2
-8
-9
-20
-22
-23
-18
-13
-13
-15
-17
-16
-18
-14
-13
-10
-9
-9
-2
0
1
-9
-20
-41
-62
-87
-113
-130
-135
-121
-92
-56
-30
-6
6
16
19
26
25
29
37
35
33
32
33
32
25
27
22
23
25
25
23
21
21
20
25
27
28
26
22
17
16
13
11
8
4
-2
2
-5
-7
-10
-10
-8
-5
-4
-6
-9
-10
-12
-16
-17
-11
-7
-11
-7
-8
-2
4
4
9
11
19
25
34
38
38
34
31
32
30
28
29
31
32
38
43
51
48
33
12
-11
-43
-72
-90
-101
-90
-65
-34
-14
4
12
16
15
8
3
3
2
7
-6
-5
-11
-13
-12
-18
-16
-20
-22
-27
-34
-39
-43
-42
-36
-34
-37
-28
-16
-6
-4
-12
-13
-22
-26
-28
-31
-33
-38
-41
-44
-47
-45
-41
-42
-41
-38
-35
-34
-32
-29
-21
-17
-11
-11
-14
-15
-26
-32
-32
-30
-25
-24
-25
-25
-22
-23
-26
-29
-27
-24
-22
-13
-10
2
4
3
-5
-27
-44
-69
-92
-114
-119
-102
-72
-36
-4
18
31
38
39
48
47
48
46
48
43
40
38
38
39
43
42
40
42
40
42
42
42
37
35
31
29
29
26
23
17
10
8
6
5
2
1
2
4
1
-2
-4
-4
-9
-7
-10
-8
-11
-14
-15
-9
-7
-4
2
8
10
17
18
18
26
29
32
36
41
39
41
37
41
39
39
40
41
50
54
60
63
54
44
22
0
-31
-54
-76
-84
-67
-40
-17
3
14
18
14
15
10
9
8
12
3
-8
-21
-23
-24
-27
-28
-31
-34
-31
-34
-34
-32
-32
-31
-32
-30
-32
-32
-29
-25
-21
-21
-17
-18
-22
-26
-29
-28
-32
-37
-35
-40
-37
-40
-37
-38
-39
-42
-36
-37
-27
-21
-14
-13
-10
-14
-11
-13
-10
-9
-7
-10
-4
-3
-7
-7
-7
-9
-13
-12
-12
-12
-11
-3
2
4
-4
-22
-35
-61
-86
-114
-133
-135
-117
-89
-57
-37
-16
-2
10
14
18
17
21
20
17
13
10
8
6
6
11
6
5
3
8
11
6
4
8
4
3
1
-4
-4
-12
-15
-24
-26
-29
-30
-29
-29
-30
-31
-26
-28
-31
-30
-35
-34
-30
-27
-27
-27
-22
-16
-12
-10
0
4
8
6
12
16
17
22
23
25
28
20
19
24
25
29
30
27
28
37
45
51
45
35
27
11
-10
-39
-65
-81
-81
-55
-25
0
16
21
24
23
24
20
11
-3
-11
-17
-21
-25
-27
-29
-32
-37
-41
-39
-36
-32
-37
-37
-36
-35
-32
-31
-35
-30
-29
-24
-23
-32
-37
-39
-40
-41
-51
-53
-56
-63
-55
-54
-48
-40
-39
-33
-26
-21
-17
-6
-1
3
5
10
7
8
1
-3
-9
-13
-19
-15
-16
-11
-14
-14
-15
-11
-9
-13
-7
-4
10
10
17
15
7
-15
-36
-62
-93
-114
-118
-102
-79
-45
-18
4
18
25
31
35
38
38
39
40
46
45
41
36
31
24
26
26
23
30
33
33
31
26
26
28
32
31
29
24
19
14
10
6
5
3
2
-4
-5
-5
-5
-8
-12
-17
-21
-22
-27
-25
-19
-16
-11
-9
-2
4
6
7
9
11
16
20
22
24
27
32
34
29
29
32
29
27
29
28
29
33
39
47
48
38
22
-4
-28
-60
-89
-107
-109
-93
-64
-38
-21
-6
2
2
0
-1
2
4
-6
-9
-10
-18
-24
-24
-24
-21
-16
-17
-16
-11
-7
-8
-13
-11
-12
-14
-14
-18
-16
-18
-14
-11
-14
-22
-29
-33
-32
-34
-38
-33
-32
-28
-29
-25
-23
-22
-15
-10
-5
5
8
10
12
14
8
7
0
-3
-6
-2
-3
-6
-13
-13
-15
-12
-14
-4
-9
-6
-9
1
7
17
21
17
10
-9
-25
-49
-78
-98
-108
-96
-71
-37
-10
19
30
40
40
42
43
44
44
39
39
36
31
36
38
35
36
37
40
40
37
37
39
38
38
35
35
23
16
11
3
1
-3
1
-6
-11
-17
-19
-20
-21
-23
-18
-21
-22
-20
-19
-18
-15
-15
-16
-17
-13
-9
-9
-9
-6
-9
-7
0
-2
4
4
3
7
13
12
12
13
17
18
22
30
36
37
41
37
32
12
-4
-29
-55
-77
-95
-89
-70
-42
-21
4
13
16
13
8
3
4
4
4
-4
0
-6
-12
-29
-34
-42
-44
-46
-40
-33
-38
-41
-42
-34
-24
-6
-1
-6
-14
-17
-13
-7
-6
-14
-14
-21
-25
-32
-36
-34
-36
-31
-29
-28
-22
-24
-21
-19
-17
-7
-3
5
6
6
-4
-13
-11
-13
-15
-18
-21
-18
-14
-12
-7
-11
-4
0
-2
4
4
6
8
16
16
12
8
-11
-31
-55
-80
-99
-112
-110
-88
-57
-30
-5
12
18
21
19
11
15
17
18
24
27
27
26
17
12
3
6
5
7
8
8
9
9
6
12
11
18
15
9
5
-2
-11
-8
-15
-15
-22
-27
-25
-23
-23
-22
-29
-22
-25
-18
-20
-23
-18
-18
-14
-14
-7
-3
4
4
10
7
12
14
20
19
24
26
27
30
32
31
27
26
28
33
37
43
52
52
43
30
14
-12
-40
-62
-80
-78
-65
-40
-17
1
16
15
19
17
11
2
-4
-6
-7
-3
2
14
19
21
16
19
11
7
1
-2
-16
-28
-33
-33
-37
-38
-33
-22
-14
-16
-28
-37
-37
-28
-27
-36
-39
-38
-36
-39
-40
-47
-40
-37
-33
-34
-36
-24
-14
-6
-2
2
7
8
6
5
6
4
-1
-1
3
6
15
22
25
23
26
25
27
24
28
29
33
34
26
16
-8
-28
-62
-89
-108
-111
-93
-61
-26
-4
13
25
36
42
47
45
41
40
39
36
30
27
29
30
27
31
27
32
29
29
27
31
30
31
30
30
28
27
31
28
28
22
16
12
5
4
2
-2
-3
-5
-4
-4
-3
-6
-12
-21
-24
-26
-24
-20
-20
-14
-16
-11
-7
-3
1
2
4
5
12
18
26
32
36
36
31
27
23
21
26
25
32
35
42
41
30
15
-8
-40
-66
-87
-95
-87
-68
-41
-15
4
16
15
9
6
6
7
2
-6
-10
-12
-19
-32
-47
-56
-60
-62
-65
-57
-50
-41
-37
-36
-34
-32
-28
-25
-28
-30
-34
-32
-33
-30
-35
-46
-50
-53
-57
-52
-50
-52
-47
-50
-49
-47
-44
-40
-40
-43
-49
-38
-27
-22
-17
-14
-20
-17
-17
-15
-10
-11
-12
-9
-5
-5
1
3
5
11
9
8
13
19
27
26
18
4
-20
-45
-76
-98
-116
-115
-92
-63
-37
-11
7
16
17
15
17
26
27
23
20
16
18
16
15
15
16
15
16
7
2
1
0
5
2
4
-3
-2
0
1
-3
-6
-13
-21
-28
-31
-34
-43
-49
-50
-50
-46
-48
-45
-42
-36
-36
-37
-35
-37
-36
-38
-31
-30
-26
-25
-24
-20
-16
-15
-9
-2
4
6
8
7
10
11
9
8
12
7
11
19
28
37
35
27
8
-20
-54
-91
-117
-122
-109
-74
-30
2
25
30
31
27
29
23
20
18
9
3
-4
-3
-11
-15
-24
-33
-39
-40
-37
-32
-31
-30
-32
-30
-23
-25
-21
-25
-28
-30
-32
-31
-30
-35
-35
-39
-37
-35
-34
-35
-37
-36
-36
-35
-31
-25
-21
-14
-20
-15
-9
-6
3
8
12
10
8
3
4
3
1
1
-2
1
4
7
12
17
12
10
8
7
9
15
20
26
15
4
-21
-50
-72
-94
-108
-101
-79
-44
-17
7
18
32
29
31
32
34
42
47
42
43
40
40
34
32
32
32
32
33
33
34
32
32
34
32
34
31
28
23
19
17
15
10
6
-3
-14
-16
-21
-18
-17
-13
-13
-12
-8
-7
-15
-14
-19
-18
-15
-12
-8
-15
-15
-23
-22
-15
-11
-5
5
10
9
13
10
14
14
17
16
12
13
12
15
20
26
30
31
27
15
1
-21
-48
-80
-97
-97
-77
-50
-28
-10
3
11
9
9
3
1
0
1
-5
-11
-12
-22
-26
-24
-22
-26
-26
-28
-34
-41
-49
-50
-48
-39
-30
-30
-36
-38
-38
-28
-24
-19
-14
-15
-17
-15
-16
-23
-29
-26
-28
-33
-38
-34
-33
-29
-25
-21
-24
-18
-8
-9
-10
-3
2
4
6
3
3
-1
-4
-5
-5
-6
-8
-10
-9
-6
-2
-1
4
6
15
20
20
20
12
-7
-28
-58
-86
-104
-107
-89
-61
-31
-10
8
16
24
30
29
34
26
24
24
26
25
18
22
17
16
13
16
17
18
19
16
15
14
14
13
13
17
17
18
11
8
3
0
-9
-14
-17
-21
-25
-26
-24
-17
-17
-13
-9
-9
-5
-6
-4
-2
2
5
4
8
5
8
9
9
11
11
13
12
14
23
28
32
31
30
28
25
31
35
44
51
59
57
56
46
25
7
-21
-46
-63
-67
-55
-29
6
25
43
52
58
54
49
41
37
34
34
31
22
15
7
5
-5
-8
-14
-13
-19
-21
-16
-15
-18
-21
-20
-19
-21
-32
-37
-41
-45
-46
-45
-41
-43
-40
-44
-41
-39
-41
-37
-30
-31
-28
-31
-26
-23
-22
-19
-15
-8
-4
-2
-2
-6
-4
-5
-2
1
3
-1
4
3
1
1
1
-1
-4
-5
-2
5
11
17
22
23
18
6
-14
-34
-65
-92
-111
-113
-101
-71
-43
-21
-5
8
18
18
18
21
21
24
21
18
16
18
15
16
10
10
6
3
3
4
4
6
6
3
3
11
9
5
4
3
0
0
-7
-11
-8
-15
-17
-22
-24
-22
-23
-22
-22
-22
-23
-22
-21
-21
-20
-15
-14
-12
-13
-18
-19
-19
-18
-13
-13
-9
-8
-4
2
8
10
9
15
17
22
28
21
25
29
34
37
33
25
9
-17
-46
-79
-99
-102
-84
-55
-27
-7
9
15
22
22
15
11
12
7
4
-4
-13
-21
-23
-25
-29
-31
-30
-29
-29
-27
-26
-25
-27
-29
-26
-24
-26
-23
-20
-24
-30
-35
-37
-41
-41
-43
-43
-40
-38
-33
-29
-20
-19
-18
-19
-18
-16
-13
-9
-6
-6
-8
-5
-10
-10
-4
-3
1
4
1
0
1
-1
-9
-8
-6
-1
1
8
14
18
25
28
30
34
21
10
-15
-37
-66
-95
-112
-117
-100
-68
-41
-16
6
17
24
24
21
20
21
22
24
24
26
23
26
20
26
28
23
24
22
19
12
14
15
15
15
11
11
8
3
3
3
-3
-3
-7
-11
-12
-18
-18
-20
-24
-23
-19
-14
-13
-9
0
-5
-7
-9
-11
-8
-7
0
-2
-5
2
0
-2
0
3
4
7
12
9
16
15
19
22
25
30
32
44
44
50
51
48
32
16
-13
-40
-63
-80
-89
-77
-52
-21
5
17
25
32
37
37
31
28
18
11
7
1
-5
-7
-8
-11
-13
-19
-22
-22
-21
-16
-14
-17
-27
-33
-34
-30
-25
-24
-25
-25
-29
-32
-38
-45
-47
-42
-39
-35
-23
-18
-12
-5
-3
-2
-2
1
-5
-7
-7
-11
-11
-11
-8
-12
-12
-11
-8
-7
-5
1
6
8
12
13
8
8
5
2
-4
-4
1
9
17
17
5
-6
-28
-55
-86
-116
-128
-119
-90
-53
-19
8
22
32
32
33
31
29
29
28
26
26
24
21
18
28
28
32
35
34
35
32
27
22
21
16
12
9
4
2
1
-4
-7
-15
-19
-23
-22
-27
-26
-25
-27
-27
-26
-31
-35
-34
-34
-35
-37
-33
-27
-25
-17
-12
-11
-11
-16
-13
-13
-11
-4
0
-15
-26
-24
-21
-13
1
10
23
19
23
24
29
44
46
48
46
33
15
-10
-37
-55
-66
-55
-30
6
32
50
62
66
66
66
62
60
59
60
60
57
59
51
42
29
23
24
18
13
10
1
-6
-13
-16
-13
-18
-22
-33
-44
-56
-62
-64
-63
-61
-65
-72
-68
-61
-58
-54
-48
-43
-39
-31
-23
-15
-11
-9
-18
-12
-19
-16
-18
-20
-15
-14
-14
-14
-13
-16
-12
-10
-7
1
7
11
12
9
-1
-8
-12
-10
-2
6
12
13
9
-6
-25
-48
-82
-104
-116
-110
-92
-56
-24
1
18
23
28
28
21
18
17
11
12
10
6
7
6
6
7
10
13
18
21
11
-3
-14
-20
-24
-24
-29
-30
-37
-35
-41
-43
-42
-40
-35
-35
-42
-47
-46
-40
-39
-36
-39
-38
-38
-38
-39
-35
-30
-32
-25
-22
-15
-13
-14
-21
-28
-36
-41
-36
-28
-30
-25
-22
-18
-8
-6
-7
-5
-5
-4
7
24
36
49
53
48
38
16
-7
-38
-65
-81
-89
-73
-45
-17
11
26
31
35
32
31
28
23
24
23
21
19
17
12
6
-7
-9
-13
-19
-21
-28
-28
-26
-32
-29
-29
-27
-28
-29
-22
-26
-24
-23
-29
-29
-30
-38
-48
-51
-43
-34
-29
-21
-20
-19
-20
-16
-17
-10
-13
-12
-9
-10
-13
-13
-13
-10
-10
-8
3
8
15
21
23
25
21
17
12
10
14
9
13
19
22
31
34
30
16
-4
-25
-48
-72
-90
-89
-67
-41
-8
9
26
31
37
34
29
25
24
22
24
25
23
21
18
17
15
17
19
16
15
20
28
32
31
32
32
31
28
27
22
22
23
25
27
29
29
31
23
19
20
21
21
23
22
21
21
24
23
25
19
20
26
24
28
25
28
23
25
23
19
26
24
28
30
31
30
27
27
29
27
37
45
48
52
59
64
56
47
32
6
-19
-47
-60
-59
-39
-9
23
46
64
70
73
71
70
65
60
55
54
46
40
34
25
26
20
17
12
5
-8
-16
-22
-30
-30
-35
-43
-54
-64
-79
-75
-68
-60
-61
-60
-71
-68
-70
-70
-73
-72
-69
-63
-58
-53
-50
-46
-36
-39
-35
-34
-34
-35
-32
-33
-32
-34
-30
-23
-27
-20
-19
-12
-8
-3
4
7
6
8
-2
-2
-7
1
4
12
20
14
7
-9
-24
-54
-87
-108
-125
-113
-86
-49
-25
-5
7
13
14
9
11
8
2
4
2
3
4
6
7
5
5
5
8
7
10
15
13
16
13
15
10
5
1
3
2
-2
1
1
4
-3
-4
-7
-7
-13
-13
-10
-11
-12
-15
-17
-16
-15
-14
-7
-11
-9
-11
-7
-10
-14
-15
-18
-16
-15
-12
-9
-8
-10
-8
-10
-11
-12
-9
2
4
8
17
28
39
53
54
44
33
7
-20
-51
-69
-79
-70
-44
-13
15
32
43
44
41
35
31
29
21
20
13
12
5
4
2
-7
-15
-20
-35
-38
-40
-33
-25
-22
-23
-25
-30
-29
-31
-35
-41
-44
-51
-53
-48
-48
-49
-53
-60
-61
-56
-45
-43
-39
-35
-36
-42
-40
-41
-38
-31
-31
-30
-31
-32
-28
-26
-23
-22
-22
-20
-21
-15
-7
-2
-6
-1
2
2
1
-3
-5
-2
0
7
7
8
-8
-23
-52
-77
-95
-107
-99
-72
-41
-17
-1
9
17
18
17
15
17
17
18
20
21
21
20
16
10
11
12
12
7
10
16
14
7
7
6
4
4
1
7
10
9
9
12
15
11
12
6
5
2
-3
-6
-7
-7
-4
1
2
2
4
0
-4
-5
-4
0
1
2
-3
-12
-14
-20
-24
-26
-27
-24
-31
-43
-58
-60
-61
-54
-46
-38
-26
-10
0
8
5
-5
-18
-35
-61
-85
-100
-103
-88
-64
-35
-8
6
19
22
25
25
28
28
25
28
24
18
18
10
6
-5
2
-4
-10
-23
-24
-24
-28
-35
-44
-45
-46
-43
-42
-51
-53
-50
-42
-45
-45
-50
-51
-52
-48
-41
-39
-33
-32
-28
-30
-23
-20
-18
-12
-7
-9
-7
-11
-14
-19
-23
-21
-16
-7
0
-5
-7
-9
-5
-3
8
14
20
22
16
13
14
11
17
19
15
10
-7
-32
-64
-95
-121
-130
-118
-93
-62
-33
-6
11
18
25
29
31
32
32
33
26
25
24
22
21
19
24
27
27
26
25
23
23
21
13
12
12
13
8
3
3
-2
-5
-7
-4
-9
-6
-9
-10
-11
-15
-15
-18
-20
-18
-21
-21
-20
-21
-15
-12
-9
-7
-7
-2
0
-7
-8
-9
-9
-13
-11
-9
-7
-6
-5
-6
-3
-5
-5
-4
-6
6
17
32
44
48
44
32
10
-16
-47
-69
-79
-66
-37
-10
21
34
50
49
54
53
55
52
49
48
46
44
36
31
25
23
19
19
9
8
-3
-6
-15
-24
-20
-24
-30
-32
-36
-47
-46
-47
-52
-52
-48
-53
-55
-56
-59
-57
-56
-56
-59
-53
-42
-28
-24
-25
-28
-30
-29
-23
-18
-21
-20
-25
-20
-20
-16
-11
-10
-8
-2
-2
6
12
19
24
24
19
20
11
14
27
34
39
30
14
-9
-28
-55
-85
-96
-93
-68
-40
-5
24
37
40
42
36
32
33
33
30
31
26
21
20
18
16
17
18
22
22
25
24
25
24
20
15
13
15
16
10
5
6
0
-9
-8
-3
-3
-6
-9
-9
-14
-16
-15
-15
-13
-11
-10
-6
-4
-1
-2
0
2
3
3
8
4
4
-3
-7
-7
-8
-6
0
5
4
6
2
-1
0
3
13
22
36
44
54
54
49
38
15
-16
-44
-77
-89
-87
-65
-35
-7
14
32
38
40
40
33
32
30
27
25
19
15
11
4
0
-7
-5
-8
-12
-16
-23
-22
-28
-32
-33
-41
-48
-48
-42
-38
-37
-38
-47
-46
-51
-51
-55
-56
-61
-55
-48
-32
-30
-26
-20
-27
-28
-25
-26
-27
-31
-24
-24
-18
-23
-21
-19
-20
-18
-17
-10
-2
3
11
11
15
16
11
13
11
16
22
33
37
33
27
12
-11
-38
-69
-91
-97
-86
-59
-24
0
17
25
30
32
29
28
22
20
15
16
11
14
12
13
13
14
16
13
19
17
18
21
16
10
12
12
11
7
2
1
-6
-4
-7
0
-8
-8
-12
-17
-16
-20
-18
-21
-12
-14
-10
-15
-13
-13
-11
-10
-8
-11
-9
-10
-15
-14
-15
-13
-14
-12
-10
-6
-7
-5
-5
-2
1
-2
2
9
11
18
30
42
44
33
20
-3
-25
-55
-78
-92
-82
-57
-32
-11
9
22
33
34
35
34
27
30
27
28
28
20
11
6
0
-5
-11
-10
-15
-21
-29
-33
-38
-35
-31
-31
-33
-43
-52
-58
-55
-53
-49
-46
-48
-52
-57
-59
-54
-49
-37
-30
-20
-24
-26
-33
-33
-30
-34
-30
-30
-28
-31
-26
-24
-20
-23
-22
-19
-12
-5
8
8
12
13
12
10
1
-2
3
6
11
24
25
24
16
-2
-23
-52
-81
-98
-93
-76
-48
-25
-3
12
18
18
17
16
13
11
10
7
11
10
13
11
14
12
8
8
7
6
8
5
4
9
10
14
16
16
9
6
4
1
0
-1
-6
-9
-6
-7
-8
-8
-9
-15
-15
-20
-15
-16
-17
-10
-8
-8
-6
1
2
2
3
-4
-9
-11
-11
-15
-9
-7
-6
-5
-1
2
-2
2
9
10
13
20
25
36
46
45
40
26
-2
-31
-57
-81
-84
-75
-51
-22
7
26
38
45
43
41
40
36
27
24
20
17
13
15
10
6
-3
-9
-13
-21
-27
-32
-39
-42
-47
-47
-53
-55
-57
-49
-44
-43
-41
-43
-45
-48
-49
-48
-44
-46
-49
-49
-43
-37
-28
-24
-21
-14
-15
-14
-5
-12
-13
-15
-12
-17
-16
-18
-15
-18
-16
-8
3
8
12
13
14
16
20
18
22
27
32
36
31
27
14
1
-23
-49
-75
-88
-88
-66
-39
-12
10
22
28
32
27
23
16
13
11
16
18
20
17
12
10
6
6
13
14
13
10
9
13
13
16
13
11
11
9
3
2
4
10
5
2
-5
-6
-6
-9
2
0
-8
-13
-15
-10
-12
-8
-5
-7
-2
-4
3
2
11
10
5
1
-3
-6
-6
-6
-7
0
5
4
7
6
9
9
17
19
11
10
9
19
22
23
17
5
-14
-38
-58
-72
-68
-49
-23
10
27
43
51
57
58
56
53
55
49
45
39
33
27
21
15
7
-3
-2
-7
-8
-15
-24
-25
-29
-38
-38
-44
-44
-49
-53
-56
-57
-57
-67
-79
-81
-79
-73
-66
-58
-52
-49
-44
-37
-33
-28
-28
-35
-28
-25
-19
-11
-6
-10
-12
-11
-9
-11
-10
-11
-10
-6
1
9
17
21
21
22
20
18
16
18
22
22
28
20
4
-14
-40
-68
-92
-103
-104
-89
-69
-45
-20
-1
12
22
22
25
27
28
22
20
18
16
10
12
12
13
15
18
16
10
10
11
11
12
13
18
14
8
1
-7
-9
-9
-8
-8
-12
-11
-8
-5
-7
-6
-5
-5
-2
6
6
7
2
-2
-1
9
11
15
16
15
11
3
-1
0
-3
0
2
5
8
10
11
12
11
12
9
14
20
28
38
48
58
64
60
51
35
4
-20
-51
-71
-68
-51
-23
-1
19
35
46
48
43
40
33
30
24
23
21
17
15
12
7
1
-7
-12
-19
-25
-23
-25
-28
-36
-44
-43
-44
-48
-54
-68
-77
-71
-60
-52
-41
-41
-40
-38
-32
-32
-43
-55
-52
-43
-34
-32
-34
-32
-21
-19
-13
-13
-9
-12
-18
-21
-19
-18
-23
-25
-24
-25
-24
-18
-17
-16
-17
-14
-4
-1
5
3
-1
-5
-18
-44
-70
-96
-123
-143
-156
-159
-146
-127
-97
-77
-58
-41
-18
-5
6
12
15
19
20
20
19
23
22
19
17
20
22
24
25
30
30
33
32
36
40
37
40
40
33
34
31
28
23
19
16
11
11
13
14
13
16
15
21
20
19
20
15
9
7
11
15
15
17
24
21
16
20
19
26
28
31
28
27
23
20
16
13
7
4
4
11
15
24
30
32
20
-4
-29
-52
-78
-91
-91
-72
-45
-12
6
26
39
44
47
40
41
43
41
36
40
40
34
32
30
20
13
4
-1
-7
-7
1
-4
-10
-12
-15
-17
-29
-30
-37
-39
-42
-42
-47
-45
-46
-50
-54
-57
-59
-62
-66
-60
-57
-52
-54
-50
-47
-37
-33
-28
-18
-8
-4
-6
-8
-8
-6
-6
-2
-4
-3
-8
-6
-3
4
9
8
10
11
13
23
29
35
37
32
16
-8
-31
-58
-79
-99
-98
-88
-56
-31
-15
1
10
20
25
31
34
32
28
19
16
16
5
0
-5
-3
-7
-10
-12
-12
-10
-11
-7
-10
-9
-10
-11
-11
-13
-13
-15
-15
-15
-20
-31
-33
-34
-38
-32
-35
-28
-23
-23
-26
-25
-22
-16
-14
-6
-7
-5
-6
-10
-14
-14
-15
-16
-17
-14
-15
-10
-4
-2
4
5
6
8
4
7
10
12
15
22
22
20
16
7
-10
-24
-45
-70
-78
-69
-49
-17
8
27
38
50
49
53
52
49
49
51
51
51
52
49
42
43
43
41
44
37
35
30
27
22
16
13
6
1
-7
-12
-16
-31
-44
-51
-52
-53
-55
-57
-64
-69
-72
-70
-70
-76
-79
-76
-70
-60
-48
-49
-49
-45
-33
-29
-28
-32
-34
-40
-35
-35
-30
-28
-26
-30
-33
-30
-29
-24
-22
-19
-18
-14
-11
2
12
12
4
-14
-31
-53
-78
-89
-91
-80
-60
-40
-18
2
16
24
23
24
23
23
21
22
17
16
8
2
-3
-8
-8
-9
-10
-9
-11
-11
-18
-18
-18
-12
-10
-11
-8
-7
-5
0
-4
-7
-12
-13
-13
-7
-8
-8
-9
-5
-7
-7
-7
-2
1
3
13
15
22
25
24
19
17
14
13
14
16
14
19
23
25
25
24
21
17
11
3
4
4
8
10
15
20
16
3
-16
-33
-55
-75
-90
-90
-77
-46
-11
20
44
57
57
60
56
48
42
39
35
34
32
31
31
30
27
23
23
24
18
10
9
7
9
6
2
-8
-10
-9
-13
-24
-36
-40
-44
-53
-64
-77
-84
-84
-83
-78
-71
-74
-73
-80
-85
-77
-64
-57
-49
-40
-31
-27
-27
-23
-22
-18
-21
-19
-17
-16
-13
-10
-11
-14
-18
-14
-11
-9
-7
-3
-3
6
16
20
16
4
-13
-33
-49
-71
-91
-98
-82
-58
-32
-8
16
27
31
39
40
38
35
32
27
22
17
16
14
12
12
12
6
4
4
4
3
0
-8
-7
-9
-4
-5
-6
-4
-5
-7
-4
-5
-7
-10
-14
-12
-15
-18
-17
-17
-19
-19
-17
-13
-6
-5
5
9
10
5
10
10
10
12
-1
-1
2
5
5
8
9
13
10
14
13
10
20
16
17
18
24
28
26
13
-5
-22
-44
-69
-86
-88
-89
-69
-41
-21
1
18
29
31
41
48
51
54
56
53
51
50
48
45
40
39
34
36
35
33
36
31
27
25
29
22
15
9
-3
-13
-18
-21
-28
-32
-44
-52
-57
-61
-65
-67
-72
-79
-84
-88
-90
-80
-70
-64
-55
-49
-48
-49
-53
-52
-48
-47
-37
-34
-36
-30
-25
-19
-16
-15
-16
-17
-21
-25
-29
-21
-19
-13
1
9
9
0
-11
-30
-56
-83
-102
-99
-80
-47
-10
20
41
44
43
38
32
33
31
33
28
32
27
23
20
24
25
21
15
9
4
-5
-7
-8
-9
-7
-7
-7
-9
-12
-8
-8
-12
-17
-16
-20
-24
-25
-29
-23
-25
-25
-22
-24
-23
-15
-12
-4
-5
4
3
7
0
-2
3
5
6
12
11
7
4
5
11
15
18
14
15
7
6
4
-3
-4
-11
-17
-19
-26
-40
-64
-81
-99
-116
-128
-137
-130
-118
-90
-50
-15
11
36
55
72
83
83
88
87
83
80
76
75
69
63
62
61
64
59
59
64
65
62
62
56
49
44
42
36
30
24
21
18
11
2
-9
-18
-24
-30
-31
-31
-32
-27
-32
-36
-41
-42
-43
-31
-31
-24
-29
-29
-39
-39
-39
-41
-37
-35
-25
-19
-11
-19
-14
-8
-4
-5
-8
-11
-7
-3
3
5
3
-9
-22
-37
-56
-81
-102
-109
-94
-67
-33
-3
15
25
35
33
30
24
21
24
24
24
23
25
23
16
20
14
11
8
3
-1
-8
-12
-13
-13
-13
-15
-16
-17
-17
-17
-19
-19
-18
-22
-19
-22
-13
-11
-8
-7
-2
-1
0
7
8
7
6
4
8
8
7
13
14
22
26
26
22
18
16
15
14
20
19
20
22
23
18
17
17
18
21
30
34
38
35
24
6
-22
-51
-74
-96
-100
-90
-63
-38
-8
7
13
16
24
31
31
35
36
41
40
43
42
39
38
32
25
19
18
16
13
13
9
9
9
3
-3
-8
-20
-18
-19
-15
-19
-21
-28
-42
-44
-52
-57
-63
-72
-68
-66
-61
-55
-56
-61
-60
-69
-69
-67
-62
-55
-44
-43
-52
-58
-57
-52
-44
-32
-25
-27
-37
-44
-41
-34
-24
-15
-13
-16
-26
-33
-34
-37
-45
-56
-80
-102
-118
-135
-148
-146
-134
-106
-68
-36
-16
10
20
28
37
38
40
39
40
44
43
47
48
49
44
44
37
37
31
28
30
25
23
19
20
13
10
9
11
9
8
3
5
4
8
8
8
2
-4
-6
0
-2
5
6
3
-8
-12
-8
-7
-6
-3
-5
-2
-4
-5
-3
6
13
19
16
15
19
17
16
15
18
15
15
11
11
22
32
31
28
19
0
-22
-52
-75
-89
-88
-67
-38
-15
7
22
36
39
46
50
47
43
42
36
37
34
35
40
43
46
44
39
40
39
37
37
36
36
36
29
26
24
21
17
18
14
8
-1
-11
-15
-20
-26
-33
-33
-32
-35
-30
-31
-32
-35
-35
-40
-45
-55
-58
-61
-58
-56
-46
-47
-40
-42
-48
-42
-40
-37
-35
-29
-24
-24
-16
-14
-12
-12
-12
-9
6
13
3
-8
-29
-42
-73
-93
-109
-112
-99
-75
-46
-13
10
27
34
34
29
28
19
18
17
20
17
13
12
6
3
5
7
5
11
7
11
13
9
7
5
6
4
5
-1
0
-7
-7
-10
-12
-13
-20
-18
-15
-15
-9
-6
-2
8
6
4
4
5
10
13
16
14
12
14
14
14
15
17
23
27
30
28
27
27
27
25
21
17
15
18
18
27
33
36
34
29
12
-10
-37
-67
-94
-103
-95
-72
-48
-24
-4
12
24
31
35
40
38
43
47
48
52
44
42
45
44
40
38
38
37
29
21
17
14
14
16
14
16
12
8
3
4
1
-5
-7
-13
-22
-26
-31
-31
-33
-36
-45
-48
-49
-49
-52
-47
-47
-43
-40
-46
-54
-57
-57
-58
-54
-52
-39
-30
-32
-37
-47
-48
-55
-62
-64
-64
-48
-35
-18
-4
12
23
18
3
-19
-45
-75
-101
-117
-124
-114
-87
-60
-21
0
14
28
27
32
38
35
32
32
29
28
23
14
9
11
8
12
14
15
15
16
18
16
16
12
12
9
7
5
1
-1
-4
-6
-9
-9
-8
-10
-5
1
-2
2
7
11
16
17
22
21
21
23
19
21
21
24
25
25
20
26
23
28
25
27
27
32
31
34
36
38
33
25
26
28
31
36
36
28
14
-9
-28
-58
-84
-93
-86
-68
-44
-20
2
16
22
31
30
25
25
20
17
9
10
9
17
20
23
23
28
24
24
26
21
22
19
20
15
13
8
6
3
0
-3
-3
-5
-11
-16
-20
-21
-23
-22
-23
-21
-23
-24
-33
-39
-40
-39
-38
-40
-47
-56
-56
-55
-52
-52
-51
-58
-60
-64
-56
-48
-51
-53
-53
-53
-45
-44
-39
-40
-50
-51
-46
-43
-44
-50
-62
-74
-99
-122
-142
-148
-143
-124
-100
-70
-41
-14
3
17
28
29
32
35
35
43
34
29
28
23
26
20
24
21
18
17
16
11
11
9
12
9
12
5
4
-5
-4
-10
-9
-14
-13
-14
-12
-13
-11
-12
-15
-16
-14
-11
-9
-10
-5
1
2
5
11
15
17
14
7
-4
-9
-10
-8
-7
6
10
16
18
19
19
16
11
12
17
23
32
34
30
14
-8
-33
-61
-88
-108
-106
-88
-62
-32
-8
14
20
15
17
17
24
21
19
18
20
17
14
13
11
14
16
20
20
25
25
28
28
29
30
27
25
17
12
11
10
7
0
-4
-9
-12
-17
-11
-10
-7
-6
-6
-2
-3
0
0
0
-3
0
-11
-14
-19
-25
-34
-42
-48
-55
-48
-49
-49
-47
-47
-47
-46
-49
-50
-49
-48
-48
-44
-37
-26
-15
-18
-27
-39
-51
-72
-88
-117
-128
-122
-101
-74
-48
-31
-19
-14
-8
-6
1
0
1
5
6
5
5
9
12
10
9
8
12
6
4
1
-4
-3
-5
-7
-4
-8
-9
-10
-11
-11
-14
-13
-14
-22
-29
-32
-37
-32
-36
-32
-32
-30
-22
-20
-17
-17
-14
-8
-6
1
1
0
4
0
1
1
5
7
7
15
16
16
12
11
11
11
13
11
21
27
40
40
33
19
-6
-26
-55
-78
-105
-116
-100
-77
-45
-21
-1
13
24
22
17
11
12
7
2
3
4
2
1
0
-2
1
-5
-4
4
10
15
20
29
33
36
36
29
24
19
20
20
9
5
1
-6
-9
-13
-11
-15
-12
-10
-4
-3
-2
-3
0
2
-4
-3
-4
-12
-16
-21
-26
-27
-30
-38
-45
-46
-39
-35
-41
-46
-52
-54
-57
-49
-42
-30
-22
-13
-13
-14
-20
-30
-42
-60
-89
-112
-113
-104
-77
-48
-20
7
27
39
34
28
19
12
8
5
6
6
9
10
16
20
24
30
32
34
31
29
28
24
19
15
9
9
5
7
4
3
2
-3
-7
-11
-8
-13
-11
-12
-13
-9
-4
-5
0
4
7
7
13
12
15
19
21
23
27
31
35
39
39
44
44
45
44
44
43
48
46
45
40
40
43
49
53
58
53
40
18
0
-29
-47
-69
-75
-63
-41
-18
5
16
25
29
30
29
30
33
32
25
24
25
23
20
14
11
13
13
13
12
16
16
16
16
15
15
12
11
8
13
16
17
16
11
8
1
6
1
2
2
0
0
-3
-4
-5
1
0
6
8
8
2
5
3
-4
-4
-7
-6
-11
-15
-22
-24
-32
-37
-47
-46
-47
-42
-39
-35
-34
-32
-26
-17
-10
-18
-28
-51
-82
-109
-129
-143
-141
-121
-97
-70
-40
-20
-3
6
6
13
14
13
5
1
0
-7
-15
-11
-14
-17
-15
-19
-16
-13
-4
-1
3
9
7
2
1
-1
2
-6
-11
-7
-9
-11
-15
-27
-31
-35
-32
-33
-32
-31
-29
-28
-27
-27
-21
-15
-16
-12
-13
-14
-17
-16
-18
-14
-8
-6
0
2
3
5
11
15
22
24
32
31
33
39
43
42
42
32
16
-3
-14
-47
-77
-93
-99
-84
-52
-19
6
24
37
43
40
36
33
31
31
29
29
27
30
30
33
38
36
32
27
19
18
17
10
12
10
12
12
15
19
17
11
4
-3
-3
3
6
8
9
13
17
22
22
26
30
28
28
28
24
26
26
32
36
34
34
34
28
28
25
26
24
22
23
19
19
15
8
-4
-15
-22
-24
-23
-21
-10
-14
-28
-52
-72
-104
-140
-160
-170
-152
-124
-98
-73
-55
-35
-21
-13
-15
-16
-13
0
4
4
2
2
-3
-9
-13
-15
-15
-17
-19
-19
-19
-20
-21
-16
-15
-10
-4
-2
0
-9
-7
-10
-18
-22
-22
-25
-33
-32
-36
-37
-34
-32
-32
-34
-38
-37
-36
-31
-26
-22
-15
-19
-16
-19
-21
-20
-24
-24
-27
-22
-17
-14
-13
-10
-10
-7
-3
2
2
10
15
19
19
15
5
-7
-30
-58
-88
-113
-126
-115
-81
-42
-12
10
17
25
33
39
34
33
26
21
11
12
7
9
14
14
14
12
15
14
6
5
-3
-5
-9
-14
-19
-16
-15
-12
-13
-12
-17
-22
-21
-23
-15
-11
-9
1
6
7
6
4
9
12
12
17
15
11
5
2
-1
0
9
13
18
21
21
24
22
21
18
21
19
12
9
0
-5
2
8
14
13
7
-11
-33
-61
-86
-109
-133
-132
-118
-84
-57
-34
-15
5
16
16
8
6
5
12
16
17
14
7
4
0
2
5
6
4
-9
-34
-37
-42
-34
-31
-22
-19
-13
-16
-8
-10
-3
-2
-4
-7
-10
-5
0
-6
-11
-14
-22
-16
-21
-27
-30
-27
-28
-22
-18
-14
-11
-13
-13
-16
-18
-19
-18
-16
-14
-10
-9
-7
-5
-1
10
13
19
23
23
31
40
48
47
40
20
-6
-36
-70
-95
-110
-101
-73
-36
-3
26
48
58
60
63
68
68
64
53
46
41
33
32
33
32
27
25
25
22
23
24
23
24
25
23
21
12
4
-3
-7
-4
-9
-10
-21
-29
-31
-31
-24
-19
-17
-11
-7
3
9
12
19
15
24
24
18
14
14
11
12
11
7
11
8
9
12
14
12
11
9
15
18
18
13
13
14
17
14
6
-8
-29
-53
-86
-124
-156
-168
-152
-123
-89
-60
-34
-21
-11
-10
-12
-13
-16
-16
-20
-21
-24
-34
-33
-24
-13
-4
-1
-4
-5
-4
-5
-6
-9
-13
-9
-8
-10
-6
-3
-9
-16
-21
-29
-26
-27
-25
-21
-17
-9
-5
0
-3
-8
-7
-12
-18
-17
-19
-22
-21
-18
-14
-12
-11
-14
-15
-14
-10
-7
-1
4
7
5
5
6
3
3
2
3
7
15
16
14
-1
-19
-45
-68
-88
-111
-105
-84
-54
-27
6
22
24
26
27
22
21
19
15
17
20
23
18
11
10
5
7
15
12
10
3
-3
-7
-5
0
3
2
2
1
-3
-5
-9
-9
-8
-12
-15
-26
-26
-29
-30
-31
-31
-27
-22
-16
-12
-9
-4
4
8
12
13
14
12
17
17
24
29
29
34
36
41
37
35
36
38
32
36
39
48
50
51
48
39
24
1
-29
-65
-89
-108
-106
-86
-62
-39
-22
-11
-4
-4
-13
-27
-33
-39
-41
-39
-35
-36
-43
-47
-45
-35
-35
-35
-37
-34
-31
-21
-14
-10
-10
-16
-20
-18
-17
-20
-28
-34
-41
-43
-43
-44
-44
-39
-34
-36
-34
-31
-30
-23
-19
-12
-6
-6
-9
-6
1
-2
-5
-10
-10
-17
-17
-13
-10
-8
-7
2
-1
1
6
8
5
6
-1
0
6
10
16
7
-5
-21
-41
-72
-94
-109
-106
-85
-62
-35
-12
10
24
27
26
23
19
20
21
17
18
15
11
13
14
13
11
10
14
17
19
15
10
7
10
11
8
5
0
-5
-9
-11
-10
-11
-11
-17
-24
-26
-25
-30
-31
-34
-38
-37
-32
-29
-20
-18
-13
-8
1
2
10
16
19
23
25
21
20
22
27
31
40
41
40
41
40
40
41
49
55
63
66
60
46
32
7
-20
-49
-75
-80
-73
-46
-18
4
16
22
23
19
17
11
5
3
-2
-2
-8
-5
-11
-13
-13
-18
-20
-25
-34
-29
-28
-27
-31
-41
-49
-54
-53
-38
-21
-17
-16
-20
-22
-27
-27
-22
-26
-22
-27
-30
-33
-27
-20
-20
-20
-22
-22
-14
-13
-8
-4
5
7
15
18
17
20
25
27
22
20
19
17
10
10
12
10
15
24
31
36
35
27
15
-11
-35
-64
-97
-111
-121
-103
-71
-37
-8
11
28
32
37
41
39
48
48
53
49
47
45
45
40
35
27
23
24
19
20
24
21
18
19
19
15
16
13
17
20
20
17
5
-5
-14
-21
-25
-28
-29
-29
-25
-25
-21
-20
-16
-17
-16
-19
-21
-20
-24
-20
-17
-19
-17
-17
-16
-17
-15
-17
-15
-12
-9
-7
-9
-4
5
10
14
17
21
30
33
35
24
14
-6
-36
-61
-86
-102
-95
-67
-38
-8
10
28
37
41
36
29
25
19
16
11
0
-8
-19
-24
-27
-30
-36
-42
-44
-48
-47
-47
-34
-30
-27
-23
-26
-30
-38
-40
-44
-43
-46
-44
-46
-44
-41
-36
-41
-47
-45
-43
-34
-36
-35
-32
-34
-31
-31
-26
-19
-16
-12
-15
-15
-16
-13
-6
-3
7
11
12
15
17
19
21
13
11
5
-4
-4
-8
-7
-11
-28
-42
-58
-79
-99
-113
-120
-104
-74
-41
-17
-5
9
16
15
22
20
23
18
18
13
14
15
16
20
18
14
11
10
16
9
14
14
8
2
-6
-4
-2
-4
-5
-8
-8
-13
-9
-13
-18
-18
-15
-11
-11
-14
-16
-20
-25
-22
-17
-11
-14
-13
-7
-2
-4
-7
-12
-15
-9
-11
-9
-7
-6
-6
-4
4
10
11
19
17
17
19
18
25
33
41
54
49
40
23
3
-27
-55
-75
-87
-74
-47
-22
3
24
39
44
41
36
31
26
21
18
11
12
6
1
-2
-4
-17
-26
-36
-43
-39
-40
-44
-44
-41
-39
-47
-49
-53
-58
-63
-58
-55
-59
-63
-71
-76
-79
-76
-70
-63
-56
-49
-47
-41
-39
-40
-42
-46
-42
-40
-39
-38
-34
-29
-27
-21
-19
-12
-5
4
11
20
26
34
35
31
29
28
27
27
29
32
27
18
5
-14
-42
-65
-87
-96
-98
-71
-42
-16
7
23
30
33
30
30
25
25
25
21
21
21
23
27
23
23
25
21
22
17
15
11
15
13
13
13
16
9
6
3
3
0
-3
-3
-1
3
7
-1
-7
-12
-12
-13
-13
-12
-8
-13
-9
-4
-4
4
10
11
10
8
5
-2
-7
-5
-1
1
-1
2
5
9
13
15
13
11
6
2
4
11
29
36
43
42
31
16
-10
-34
-54
-73
-65
-38
-8
15
31
42
49
50
47
52
50
39
35
30
22
18
12
4
1
-4
-4
-2
-3
-12
-15
-20
-26
-30
-29
-26
-29
-29
-31
-42
-50
-52
-46
-44
-42
-44
-46
-52
-59
-62
-50
-40
-33
-29
-22
-21
-24
-24
-26
-32
-37
-39
-40
-39
-35
-30
-26
-22
-18
-16
-8
2
8
10
13
16
20
21
27
29
38
46
45
37
22
-3
-27
-50
-76
-95
-96
-80
-51
-21
1
16
30
35
35
38
32
29
26
21
21
18
17
16
15
17
19
24
24
23
28
28
32
27
30
27
23
18
15
13
9
3
3
-2
4
4
0
-5
-13
-12
-10
-3
-5
-4
-6
-2
-3
-1
3
7
4
5
8
12
16
14
9
9
6
6
4
4
4
6
4
5
3
-1
-7
-6
-9
-12
-2
11
16
18
8
-13
-32
-50
-69
-72
-59
-34
-9
15
35
47
57
61
59
57
55
49
45
42
46
50
48
47
43
42
32
23
14
5
-5
-12
-16
-28
-31
-30
-39
-41
-46
-52
-64
-74
-82
-79
-83
-85
-75
-65
-60
-49
-39
-37
-34
-36
-34
-36
-37
-33
-35
-35
-27
-26
-30
-31
-37
-36
-38
-36
-32
-30
-24
-19
-16
-18
-15
-10
-4
-3
3
9
19
20
23
20
5
-19
-46
-77
-102
-121
-129
-116
-88
-57
-28
-14
0
9
16
19
23
23
20
21
19
17
15
12
8
6
10
11
10
12
12
12
12
12
8
8
7
3
-3
-2
-4
-11
-18
-21
-24
-30
-26
-20
-17
-21
-21
-21
-21
-12
-11
-3
0
-4
2
-2
-3
-3
0
6
5
-3
-3
-5
-6
-7
-4
-4
-5
-7
-2
-3
2
-1
3
4
9
24
31
44
54
54
45
29
2
-37
-48
-62
-60
-44
-16
14
34
44
54
60
57
56
53
48
45
38
37
35
35
33
28
25
13
14
9
4
-5
-6
-4
-13
-20
-25
-23
-27
-29
-33
-36
-39
-45
-56
-59
-64
-65
-58
-63
-59
-55
-52
-48
-44
-40
-30
-21
-17
-11
-14
-13
-15
-20
-25
-28
-27
-25
-27
-22
-25
-21
-13
-11
-1
2
7
16
22
34
39
41
48
47
45
29
14
-15
-37
-70
-97
-102
-96
-68
-33
3
27
39
48
48
48
47
43
39
39
36
37
35
34
34
33
36
36
42
44
35
32
18
13
8
10
12
11
10
4
4
4
7
5
-1
-8
-13
-17
-19
-14
-11
-9
-5
-3
-2
-5
-5
-5
-5
-3
-5
-4
-2
3
6
10
6
12
7
4
1
6
6
1
0
0
-7
-8
-4
-4
4
8
20
25
32
33
27
13
-6
-24
-43
-60
-71
-66
-42
-16
3
26
37
42
37
39
36
34
29
28
26
23
21
18
13
9
7
5
-2
-10
-9
-15
-15
-16
-25
-25
-28
-33
-36
-44
-59
-62
-64
-64
-69
-60
-60
-57
-53
-58
-56
-55
-53
-48
-45
-42
-45
-38
-37
-28
-24
-24
-32
-30
-30
-25
-21
-25
-24
-23
-23
-20
-19
-14
-8
-13
-11
-9
-4
5
15
20
24
28
26
21
-1
-23
-54
-85
-108
-122
-106
-75
-36
-8
13
27
31
36
31
26
26
23
24
16
16
15
12
11
7
9
1
4
3
5
8
9
5
6
4
3
4
1
-7
-6
-10
-14
-16
-16
-26
-33
-36
-34
-33
-24
-23
-20
-26
-37
-35
-30
-24
-12
-9
-11
-10
-11
-8
-19
-17
-12
-12
-6
-3
6
12
10
9
9
5
9
7
8
8
10
16
23
30
38
33
25
8
-18
-37
-59
-71
-65
-35
0
34
55
67
75
79
75
75
76
73
69
68
64
62
61
52
43
35
31
28
30
28
27
26
21
16
14
17
13
1
-19
-33
-42
-53
-53
-52
-57
-61
-63
-60
-64
-67
-71
-71
-65
-61
-57
-47
-38
-40
-40
-36
-35
-35
-37
-31
-30
-38
-37
-33
-33
-28
-24
-19
-17
-14
-16
-9
-7
-9
0
4
10
23
35
42
33
16
-9
-37
-64
-92
-109
-109
-85
-56
-26
3
19
32
36
37
31
28
29
24
22
20
20
14
10
8
4
2
0
1
-4
-5
-4
2
0
-3
-6
-6
-5
-8
-13
-15
-22
-25
-25
-29
-25
-32
-30
-35
-34
-33
-33
-23
-20
-17
-17
-12
-11
-10
-4
1
2
3
-4
-5
-10
-11
-12
-8
-9
-5
-9
-11
-4
-6
0
-6
-7
-9
-14
-14
-18
-15
-18
-20
-29
-43
-62
-81
-94
-108
-113
-104
-89
-56
-23
9
32
51
61
68
69
73
72
72
65
65
62
59
61
59
60
58
53
47
43
39
36
35
30
28
21
21
15
11
6
-6
-18
-28
-37
-37
-36
-40
-42
-41
-40
-45
-44
-34
-39
-28
-32
-34
-28
-31
-32
-35
-34
-31
-29
-29
-29
-28
-30
-29
-24
-25
-18
-21
-21
-21
-22
-25
-27
-19
-16
-8
0
8
12
11
2
-10
-27
-56
-71
-85
-78
-63
-37
-14
13
23
32
29
22
19
18
17
14
12
9
6
4
-3
-5
-4
-6
-9
-6
-6
-7
-6
-11
-10
-15
-13
-11
-12
-12
-18
-17
-17
-18
-21
-20
-25
-29
-28
-29
-28
-29
-23
-23
-20
-17
-12
-9
-9
-8
-7
-5
-1
3
7
10
9
5
0
-7
-7
-7
-9
-7
-2
5
8
5
6
0
-1
4
9
12
9
7
4
-6
-22
-43
-67
-84
-95
-88
-69
-42
-20
1
20
27
36
43
52
49
47
42
40
31
27
27
24
23
24
19
16
9
5
4
4
4
3
7
6
1
4
-3
-1
-8
-13
-25
-39
-50
-59
-55
-53
-54
-55
-54
-58
-60
-62
-60
-53
-40
-35
-32
-35
-33
-25
-23
-22
-22
-21
-16
-12
-1
2
2
1
-4
-7
-12
-10
-19
-23
-23
-21
-8
2
9
13
13
7
-3
-24
-49
-73
-90
-96
-85
-58
-33
-9
11
21
30
36
29
21
19
25
25
18
16
18
13
14
15
9
9
12
7
7
9
7
7
5
5
8
5
2
6
0
0
-2
-5
4
7
7
3
-3
-10
-8
-9
-5
-3
1
6
4
2
8
12
18
19
20
17
12
8
3
-5
-7
-9
-4
-7
-6
0
1
4
8
8
10
13
14
19
23
28
28
19
5
-18
-51
-75
-95
-96
-88
-64
-36
-15
9
28
35
44
48
49
51
47
44
41
27
9
-14
-29
-37
-36
-41
-40
-36
-33
-27
-22
-17
-11
-4
-2
-6
-6
-6
-7
-12
-20
-24
-27
-31
-35
-40
-44
-43
-44
-49
-49
-44
-47
-41
-32
-28
-28
-27
-30
-32
-34
-36
-35
-36
-39
-31
-26
-23
-21
-17
-16
-15
-17
-17
-21
-18
-20
-21
-20
-13
-3
8
7
0
-13
-22
-42
-63
-78
-80
-72
-48
-25
-5
11
25
35
31
30
26
23
15
13
11
9
8
8
7
7
3
7
6
7
9
2
3
-2
-7
-4
-7
-4
-3
-4
-4
-5
-9
-7
-9
-8
-12
-13
-7
0
0
-1
0
-3
-6
0
-4
-4
-5
0
-5
-5
-5
-4
1
2
-3
-3
3
6
12
10
11
8
5
5
5
8
8
4
8
14
17
22
26
15
4
-12
-33
-58
-89
-104
-112
-95
-70
-40
-13
9
23
34
38
44
42
41
46
44
42
43
37
34
27
23
23
21
20
25
24
25
24
24
19
16
19
12
8
4
-3
-5
-7
-15
-22
-29
-34
-43
-42
-49
-48
-49
-54
-48
-42
-33
-33
-41
-49
-56
-62
-58
-51
-39
-33
-38
-43
-44
-54
-50
-47
-38
-32
-24
-23
-20
-20
-23
-19
-19
-16
-9
-6
-7
-12
-24
-41
-63
-84
-102
-115
-109
-89
-61
-24
3
24
36
40
35
40
31
26
18
14
11
5
5
1
-1
-2
-4
1
0
1
1
0
-3
-3
-2
-1
3
-1
-4
-7
-12
-13
-12
-11
-13
-12
-14
-16
-17
-13
-13
-6
-6
-3
3
7
12
11
14
13
10
7
6
8
5
-10
-18
-21
-17
-11
0
5
10
11
12
18
15
14
17
17
20
26
27
38
31
19
0
-22
-48
-78
-96
-104
-91
-70
-37
-12
7
17
34
36
35
34
35
35
36
42
43
41
36
34
28
23
23
21
21
22
21
24
20
18
17
15
13
12
9
8
1
0
-9
-15
-14
-24
-28
-32
-36
-36
-38
-37
-43
-50
-54
-60
-61
-56
-59
-55
-48
-46
-48
-44
-39
-36
-30
-26
-21
-21
-12
-8
-7
-9
-10
-12
-8
2
3
15
22
27
27
18
1
-19
-40
-73
-104
-126
-132
-117
-87
-52
-24
0
14
23
28
31
39
37
35
30
24
16
12
12
12
15
17
10
9
6
7
4
0
1
-1
0
-5
-4
0
-2
-7
-8
-12
-10
-15
-17
-18
-15
-15
-15
-12
-9
0
3
5
4
8
7
10
16
20
18
19
14
12
10
12
9
14
15
20
28
34
35
30
29
31
27
24
20
20
28
35
39
32
16
-3
-28
-51
-73
-84
-79
-63
-40
-15
1
15
23
23
26
23
17
17
18
22
25
25
26
22
24
26
24
22
24
27
29
32
28
27
24
24
24
18
15
10
3
-5
-9
-9
-16
-21
-21
-25
-18
-17
-15
-12
-13
-9
-12
-17
-18
-29
-33
-43
-48
-52
-50
-50
-53
-52
-49
-50
-53
-60
-67
-67
-61
-46
-46
-40
-36
-27
-22
-25
-30
-28
-21
-11
-5
-4
-21
-42
-70
-97
-122
-126
-112
-81
-50
-26
0
13
24
25
28
28
34
37
40
37
40
36
32
24
19
27
26
24
17
16
16
13
11
8
10
8
7
10
10
6
4
4
-7
-12
-8
-12
-14
-18
-23
-20
-19
-20
-20
-23
-11
-11
-6
1
1
1
2
4
9
11
8
5
3
-2
-4
0
1
7
0
5
12
9
10
15
12
16
21
27
34
26
15
-17
-42
-68
-92
-106
-97
-73
-44
-18
-3
11
16
23
25
17
11
9
8
5
9
14
18
20
20
28
31
39
38
35
36
32
30
32
29
33
31
30
25
23
17
13
11
5
-2
-6
-9
-11
-8
-8
-6
-7
-9
-7
-5
-5
-1
3
4
7
-2
-13
-25
-37
-38
-33
-23
-17
-13
-19
-18
-21
-17
-18
-13
-15
-19
-24
-19
-10
-6
-5
-7
-11
-21
-35
-53
-82
-99
-113
-107
-79
-50
-26
-13
-1
6
5
6
11
12
14
7
9
9
16
17
20
27
33
36
32
33
31
32
30
28
18
12
5
0
0
-2
-4
-3
-5
-7
-6
-8
-10
-16
-11
-16
-14
-15
-13
-6
-4
-2
2
-3
9
8
18
19
25
26
33
31
32
29
29
27
27
27
29
24
21
22
17
21
18
19
25
29
38
40
36
27
13
-11
-40
-72
-98
-108
-100
-74
-42
-19
3
15
18
24
27
24
24
21
18
16
10
11
10
8
5
10
14
13
16
17
15
17
24
28
29
32
29
23
24
18
16
13
4
-2
-10
-9
-14
-14
-11
-10
-10
-11
-12
-9
-12
-8
-8
-3
-3
-7
-12
-18
-20
-25
-30
-36
-35
-39
-41
-42
-44
-45
-49
-55
-56
-53
-48
-48
-39
-30
-14
-12
-12
-20
-37
-57
-82
-102
-127
-143
-138
-117
-83
-55
-30
-13
-5
4
8
7
2
-4
-8
-4
-6
-3
-6
-5
0
-7
-11
-4
-4
-4
-2
1
8
4
3
-5
-12
-12
-15
-21
-29
-28
-28
-33
-31
-35
-37
-36
-34
-32
-35
-34
-35
-34
-35
-28
-25
-20
-22
-20
-18
-13
-10
-9
-9
-9
-8
-8
-7
-1
-1
1
10
11
9
10
7
5
9
9
17
21
25
15
6
-13
-38
-69
-94
-107
-102
-84
-55
-31
-9
10
16
22
22
23
19
21
22
20
18
16
16
18
23
17
12
8
-2
-3
0
2
-1
0
4
8
5
-2
-11
-14
-16
-16
-17
-16
-12
-14
-11
-12
-8
-4
-5
0
-1
-2
-3
-2
2
8
7
11
17
15
10
6
6
6
8
5
5
8
3
-2
-10
-14
-19
-21
-29
-34
-30
-24
-19
-15
-20
-38
-61
-78
-100
-117
-130
-133
-128
-112
-92
-67
-39
-23
-13
1
5
8
8
0
-4
-5
0
-6
-7
0
-3
-6
-7
-9
-4
-5
1
8
6
12
13
15
11
14
3
1
-6
-7
-12
-21
-24
-31
-29
-28
-28
-28
-24
-21
-20
-14
-10
-11
-8
-9
-7
-4
-4
-5
-5
2
2
8
5
6
5
8
7
11
16
18
24
24
23
21
21
22
23
21
24
23
14
7
-15
-39
-64
-90
-104
-103
-78
-45
-12
11
32
41
48
49
41
40
35
28
28
29
32
33
33
30
28
22
16
7
4
1
0
1
2
4
3
5
3
3
4
4
3
7
5
5
12
14
14
16
12
14
10
13
10
10
11
7
8
12
16
11
14
10
8
6
8
1
4
8
10
9
14
9
8
1
-3
-8
-19
-17
-7
3
5
-3
-20
-39
-68
-92
-124
-150
-159
-143
-110
-69
-39
-17
-3
0
0
-5
-3
8
14
15
12
7
0
-2
-4
-3
0
-5
-7
-11
-7
-10
-8
-6
-7
-5
-7
0
1
0
6
2
2
-8
-10
-12
-16
-15
-18
-21
-17
-18
-25
-20
-22
-16
-15
-12
-9
-4
-2
1
-6
-6
-4
-6
-4
0
2
0
2
6
8
10
11
15
17
19
25
33
35
39
42
41
33
18
-5
-30
-59
-89
-105
-105
-84
-50
-15
10
24
32
37
39
41
45
43
41
37
30
33
30
30
28
25
13
10
7
10
2
2
-4
-7
-11
-9
-9
-7
-5
-5
-4
-9
-6
-12
-17
-14
-12
-13
-7
-5
-5
1
-5
2
3
7
3
-1
0
-2
-6
-5
-4
-8
-4
-7
-9
-6
-5
-9
-9
-2
-1
2
0
-3
-9
0
-4
0
3
-2
-9
-23
-45
-65
-92
-124
-147
-156
-148
-119
-88
-64
-42
-30
-22
-14
-4
-8
-7
-7
-8
-5
-3
5
11
7
3
4
2
-3
-5
-9
-6
-9
-10
-13
-14
-8
-9
-5
1
-5
-5
-9
-5
-5
-4
-7
-7
-11
-13
-15
-13
-16
-15
-18
-25
-30
-32
-26
-21
-16
-12
-9
-7
-11
-8
-13
-10
-7
-8
-3
3
0
-2
2
1
-3
-3
3
9
16
23
30
27
22
3
-18
-48
-77
-98
-113
-101
-77
-43
-16
4
17
23
24
24
30
32
32
33
31
33
27
29
25
24
24
18
17
11
9
9
13
10
10
12
13
8
3
-10
-13
-13
-16
-19
-20
-24
-26
-27
-26
-22
-18
-12
-7
-10
-6
-9
0
5
7
9
13
11
9
9
8
3
3
2
-8
-18
-27
-23
-20
-14
-8
-2
1
7
10
18
27
35
35
25
12
-8
-36
-64
-88
-102
-105
-87
-66
-49
-30
-17
-8
-4
-3
-7
-13
-20
-22
-30
-28
-20
-16
-9
-4
-12
-17
-22
-27
-25
-22
-14
-13
-12
-6
-7
-14
-19
-22
-29
-27
-28
-29
-27
-26
-26
-24
-26
-25
-23
-18
-5
0
8
8
5
3
2
2
2
3
9
7
1
1
1
0
4
8
4
4
3
5
7
8
6
6
7
15
19
26
33
34
25
14
-2
-25
-46
-75
-95
-95
-76
-45
-14
18
35
44
48
44
44
35
30
26
28
32
29
28
25
25
26
22
21
17
19
21
21
20
22
17
13
10
6
1
-5
-1
0
-2
-8
-18
-20
-21
-28
-30
-33
-29
-28
-28
-25
-18
-14
-11
-6
-1
7
15
16
15
15
7
9
7
4
3
3
8
12
12
11
17
15
15
16
18
20
22
24
23
17
3
-18
-40
-75
-105
-122
-117
-96
-73
-45
-24
-7
-1
7
14
14
16
9
3
-1
-4
2
6
10
7
0
-22
-38
-46
-48
-46
-39
-31
-23
-16
-14
-11
-8
-6
-10
-15
-25
-39
-42
-40
-44
-49
-45
-44
-45
-41
-41
-38
-30
-26
-19
-15
-10
-9
-8
-7
-14
-18
-22
-22
-16
-10
-8
-5
0
2
2
4
6
8
6
11
10
11
17
21
28
29
21
12
-10
-33
-56
-78
-86
-79
-52
-24
5
33
46
55
62
65
70
63
60
49
40
35
31
40
38
37
36
31
20
16
13
14
17
19
21
19
13
16
7
4
-5
-9
-13
-17
-15
-17
-18
-22
-17
-17
-14
-14
-18
-22
-23
-26
-24
-28
-23
-15
-10
-10
-11
-12
-11
-14
-16
-11
-4
10
20
28
29
33
30
25
26
27
30
37
44
47
50
43
32
12
-13
-34
-61
-80
-90
-80
-60
-30
-7
3
9
7
0
-8
-10
-17
-18
-22
-24
-25
-24
-27
-29
-24
-20
-19
-10
-13
-9
-21
-24
-30
-32
-30
-24
-21
-16
-18
-19
-11
-1
-3
-2
-14
-13
-24
-33
-27
-29
-22
-19
-17
-18
-20
-26
-21
-14
-10
-20
-38
-48
-58
-64
-65
-59
-57
-47
-34
-18
-9
4
5
7
3
-1
3
2
4
6
12
22
28
27
18
3
-25
-53
-79
-97
-97
-81
-51
-22
-2
19
30
34
34
30
29
32
32
29
30
38
33
25
16
14
11
14
19
24
28
27
27
17
12
9
10
9
5
3
0
-4
-14
-19
-23
-27
-22
-19
-23
-17
-18
-16
-17
-18
-19
-25
-27
-24
-25
-24
-16
-14
-7
-8
-4
-4
-2
2
5
7
13
17
24
27
34
32
28
28
22
23
29
32
34
35
25
10
-12
-37
-62
-87
-92
-79
-52
-25
2
25
33
31
28
21
19
16
11
4
-5
-9
-14
-13
-14
-14
-14
-18
-20
-23
-24
-23
-29
-27
-24
-23
-14
-9
-10
-13
-17
-22
-26
-23
-23
-18
-11
-13
-21
-22
-21
-25
-20
-24
-24
-23
-19
-17
-10
0
3
7
9
14
25
27
29
29
27
29
29
31
36
36
37
34
38
39
39
38
39
43
47
36
24
2
-23
-53
-84
-102
-103
-85
-46
-12
11
32
37
48
45
47
44
41
48
48
48
50
51
54
49
45
39
32
27
27
23
24
23
28
28
27
25
18
16
13
11
12
11
9
-1
-9
-17
-21
-18
-20
-19
-20
-20
-21
-16
-17
-14
-13
-15
-18
-17
-19
-20
-25
-27
-25
-19
-12
-15
-8
-8
-13
-10
-9
-7
0
6
9
14
18
23
28
33
34
31
15
-7
-36
-62
-83
-99
-97
-82
-54
-29
-7
13
21
26
23
20
10
6
4
4
-1
-6
-12
-16
-25
-35
-44
-52
-53
-48
-40
-41
-47
-47
-42
-33
-27
-24
-35
-42
-52
-57
-57
-51
-48
-50
-50
-41
-31
-24
-25
-28
-29
-33
-36
-33
-35
-29
-29
-27
-28
-22
-19
-14
-20
-22
-19
-17
-9
5
7
9
9
5
3
-4
-6
-4
-6
-1
-1
7
10
8
-3
-29
-58
-89
-120
-135
-131
-107
-75
-43
-13
8
20
25
27
27
26
25
26
25
24
22
20
16
11
13
12
11
7
9
10
9
11
11
3
2
-5
-5
-7
-9
-8
-8
-12
-12
-18
-24
-21
-21
-25
-27
-29
-30
-31
-31
-25
-24
-22
-17
-17
-13
-8
-5
-5
-11
-19
-20
-18
-14
-11
-12
-11
-5
-5
-4
1
3
0
4
11
21
27
35
43
50
45
32
18
-5
-28
-53
-71
-70
-53
-26
2
22
37
49
49
47
43
43
45
37
34
29
24
17
16
14
3
-8
-18
-20
-22
-21
-16
-14
-23
-30
-40
-45
-45
-41
-33
-30
-35
-40
-48
-47
-41
-41
-39
-43
-45
-45
-41
-34
-29
-25
-29
-31
-24
-23
-22
-20
-24
-22
-21
-18
-15
-15
-8
-4
3
9
11
13
17
21
21
14
10
17
23
35
38
32
19
10
-17
-47
-73
-92
-97
-81
-56
-30
-10
5
10
12
15
11
9
7
6
8
4
3
4
6
5
9
7
11
10
10
14
12
12
7
9
8
8
6
-4
-10
-9
-13
-13
-17
-18
-20
-21
-22
-22
-27
-25
-26
-29
-29
-26
-24
-22
-18
-14
-13
-14
-15
-17
-17
-13
-14
-10
-17
-21
-16
-17
-14
-11
-13
-9
-6
-6
2
2
3
12
22
32
39
41
33
20
-2
-31
-54
-72
-72
-51
-19
10
27
39
48
51
51
52
49
48
41
37
32
34
27
19
17
10
9
3
-2
-2
-9
-10
-18
-24
-29
-27
-30
-31
-36
-36
-40
-42
-48
-56
-58
-60
-56
-54
-53
-57
-58
-55
-51
-43
-45
-36
-32
-22
-16
-17
-15
-15
-8
-10
-15
-13
-17
-21
-16
-18
-12
-12
-8
-3
4
10
8
15
21
25
31
33
34
28
11
-8
-34
-64
-91
-103
-90
-64
-29
2
28
37
41
40
35
32
26
21
17
13
9
9
7
8
5
4
6
3
9
6
8
8
6
9
16
13
12
5
-3
-12
-16
-22
-25
-25
-24
-29
-31
-29
-29
-28
-27
-27
-17
-8
-3
-10
-17
-20
-18
-17
-16
-17
-16
-15
-14
-19
-17
-21
-17
-17
-14
-13
-15
-13
-10
-15
-9
-5
2
1
4
14
17
19
18
6
-7
-31
-57
-75
-83
-72
-54
-24
3
21
30
34
36
35
36
37
33
29
30
27
28
28
24
17
10
10
7
9
9
8
3
0
-11
-22
-31
-31
-29
-23
-29
-34
-42
-50
-52
-60
-72
-75
-73
-71
-69
-59
-51
-54
-48
-45
-45
-46
-48
-39
-34
-30
-30
-33
-33
-37
-36
-33
-33
-33
-35
-27
-24
-23
-18
-11
-7
-4
2
10
24
31
37
48
40
24
8
-19
-48
-74
-88
-95
-84
-54
-29
-8
5
14
15
17
16
13
11
12
7
3
5
6
6
5
5
7
10
3
3
1
-3
4
7
12
19
19
19
17
13
11
10
6
6
2
-1
-3
-5
0
0
-5
-8
-8
-6
-3
-3
3
4
9
12
8
8
4
-1
2
5
3
6
1
3
6
8
11
9
7
-3
-3
-8
-9
2
6
9
15
25
24
18
5
-11
-41
-64
-78
-80
-65
-35
-5
20
39
47
49
48
44
42
37
32
32
28
20
21
21
23
22
20
16
12
12
5
3
1
-4
-5
-9
-15
-17
-23
-26
-31
-33
-39
-44
-53
-56
-63
-67
-67
-64
-60
-65
-60
-63
-52
-49
-47
-44
-45
-45
-36
-27
-19
-14
-14
-15
-20
-24
-16
-11
-13
-4
-12
-12
-12
-14
-17
-15
-12
-9
-5
2
6
11
3
-9
-32
-56
-83
-103
-104
-99
-86
-62
-36
-12
4
13
23
27
29
35
34
35
31
30
30
30
28
31
27
28
29
25
26
24
25
24
19
24
21
22
22
24
18
18
17
11
7
10
7
0
-4
-6
-2
-2
4
6
10
16
18
15
13
16
16
15
17
14
13
16
11
7
8
11
14
16
9
9
5
9
8
14
7
8
5
11
16
18
17
8
-9
-26
-51
-74
-88
-93
-75
-45
-13
12
32
48
57
60
59
60
62
61
58
52
43
36
30
27
23
16
12
12
10
11
15
18
18
17
9
8
8
4
-3
-11
-19
-29
-34
-39
-44
-47
-60
-65
-64
-61
-58
-57
-64
-62
-59
-48
-51
-49
-44
-40
-41
-39
-42
-44
-41
-38
-37
-28
-25
-23
-20
-21
-15
-12
-15
-13
-16
-19
-20
-15
-7
-2
-6
-17
-40
-57
-86
-106
-123
-125
-116
-88
-55
-26
-6
6
13
16
16
23
25
29
33
33
29
26
24
24
26
23
23
28
25
25
20
19
19
18
15
17
14
16
12
11
8
1
6
5
1
2
-6
-5
-7
-10
-13
-17
-17
-17
-15
-6
-5
-3
0
-1
5
8
14
14
9
-1
-8
-11
-8
-7
-5
1
5
3
3
-1
3
7
17
22
27
34
30
21
3
-17
-50
-75
-94
-96
-86
-60
-32
-9
14
32
40
47
50
53
55
60
60
54
55
55
48
48
46
44
43
41
40
37
35
33
28
28
25
23
23
20
14
3
-8
-17
-24
-30
-37
-45
-53
-55
-60
-65
-63
-57
-52
-54
-57
-52
-53
-59
-56
-55
-53
-42
-42
-46
-45
-50
-47
-45
-34
-30
-24
-24
-21
-22
-21
-12
-18
-15
-7
-9
1
9
9
5
-12
-29
-50
-75
-91
-95
-86
-60
-29
2
17
27
35
38
39
44
40
35
33
29
21
15
14
14
20
18
17
20
18
14
12
9
5
-1
-1
0
2
2
4
1
-7
-13
-14
-22
-21
-22
-22
-20
-18
-13
-16
-26
-27
-27
-21
-20
-18
-20
-16
-16
-12
-11
-9
-10
-11
-16
-12
-11
-9
-1
3
0
-6
-10
-9
-6
-5
0
1
5
13
17
12
-4
-22
-56
-89
-119
-144
-148
-136
-110
-74
-40
-13
11
27
35
39
45
48
49
47
45
38
44
48
54
55
54
49
48
43
42
39
38
37
36
33
33
33
30
28
19
14
13
3
-4
-6
-18
-19
-23
-24
-31
-32
-39
-38
-39
-38
-32
-34
-29
-35
-37
-48
-55
-64
-70
-67
-63
-54
-44
-33
-20
-17
-12
-13
-15
-18
-22
-20
-17
-11
-4
3
5
2
-7
-26
-42
-69
-89
-100
-102
-90
-58
-26
6
30
38
46
47
48
41
40
31
30
28
27
28
26
24
19
19
22
13
12
9
6
4
-5
-8
-13
-10
-7
-9
-13
-21
-20
-20
-24
-25
-26
-21
-19
-17
-10
-8
-1
1
5
3
5
11
12
15
16
16
17
17
20
21
22
23
26
24
20
17
16
15
15
21
21
18
19
13
15
20
24
29
32
12
-1
-19
-42
-72
-103
-117
-115
-90
-61
-37
-15
2
11
16
20
24
22
26
26
28
33
35
34
32
27
19
17
13
13
10
7
8
3
10
8
7
9
6
1
-10
-19
-17
-16
-16
-20
-24
-24
-29
-37
-43
-47
-55
-54
-52
-54
-50
-48
-52
-54
-52
-57
-58
-72
-72
-74
-69
-60
-61
-55
-45
-33
-30
-26
-27
-29
-30
-30
-26
-20
-7
7
7
5
-16
-38
-65
-93
-125
-146
-151
-140
-106
-71
-41
-18
-5
6
19
25
36
44
53
55
55
58
55
58
51
51
46
42
46
44
42
40
40
33
35
35
33
30
27
24
16
13
9
7
8
1
3
-2
-4
-5
-4
-4
-4
1
6
9
11
15
18
23
21
15
11
7
6
4
2
1
4
9
17
19
20
23
20
24
23
24
23
24
25
21
26
24
18
-2
-15
-43
-69
-93
-106
-101
-77
-45
-20
3
12
12
8
10
16
17
19
25
32
33
31
30
31
33
31
28
29
33
36
28
28
30
28
25
26
24
19
17
16
10
3
1
1
0
-8
-7
-9
-10
-8
-12
-13
-14
-19
-24
-26
-31
-43
-45
-47
-47
-49
-53
-52
-49
-58
-56
-61
-64
-60
-53
-37
-24
-17
-18
-29
-33
-31
-31
-29
-26
-17
-12
-16
-22
-35
-57
-78
-99
-115
-119
-105
-77
-49
-24
-10
3
10
11
18
18
25
29
30
27
30
27
30
25
27
26
26
23
28
24
25
26
24
20
21
23
26
24
19
16
8
-2
-6
-15
-21
-20
-20
-20
-25
-24
-24
-23
-23
-21
-20
-17
-17
-19
-17
-13
-10
-9
-11
-7
-9
-5
5
8
4
-6
-6
-6
-7
-2
4
9
7
11
16
27
36
35
27
14
-3
-38
-69
-104
-122
-119
-88
-57
-29
-4
11
20
22
20
15
16
15
16
11
11
9
15
16
13
15
10
18
19
20
23
27
27
34
31
34
34
31
23
16
7
3
1
3
3
1
2
3
2
7
5
3
8
8
7
5
11
14
17
16
9
5
-7
-10
-21
-22
-23
-21
-16
-8
-7
-6
-18
-18
-21
-16
-22
-25
-23
-28
-38
-51
-67
-87
-108
-136
-162
-177
-182
-169
-141
-101
-62
-33
-9
6
16
15
20
19
22
20
24
21
15
19
18
24
30
34
36
43
40
34
32
29
25
20
13
10
4
3
3
1
1
3
-3
-5
-10
-13
-14
-14
-17
-15
-15
-15
-13
-7
-8
-13
-14
-18
-5
-6
-2
-1
6
8
2
7
6
6
11
20
23
22
22
18
8
-1
2
2
7
16
25
29
28
17
2
-16
-42
-72
-93
-101
-85
-59
-36
-11
3
13
17
19
17
17
21
21
23
19
12
6
-2
-6
-9
-10
-6
-6
-5
-5
3
7
7
11
14
12
11
7
6
5
6
7
8
6
2
-5
-14
-14
-17
-12
-17
-12
-9
-6
-9
-10
-13
-12
-14
-11
-11
-11
-12
-18
-19
-20
-25
-26
-30
-33
-34
-39
-41
-40
-36
-33
-35
-34
-32
-33
-35
-27
-23
-28
-42
-71
-101
-133
-156
-170
-156
-120
-82
-51
-22
-4
7
11
14
16
15
17
14
6
2
-7
-5
-5
-2
-7
-10
-8
-15
-15
-8
-1
7
10
13
5
5
-2
-9
-15
-16
-22
-14
-12
-13
-13
-11
-18
-17
-16
-15
-17
-13
-15
-11
-12
-13
-9
-4
-5
-7
-9
-12
-12
-9
-5
0
1
3
8
14
19
30
31
27
30
34
34
35
41
40
38
23
9
-8
-25
-53
-71
-78
-74
-48
-18
2
17
19
24
28
32
37
34
33
35
29
29
32
28
24
26
23
20
17
14
7
7
2
3
0
-5
-3
-3
4
4
-1
-6
-8
-13
-10
-8
-9
-5
0
4
4
7
7
5
3
4
8
11
16
16
16
16
11
18
15
21
21
21
23
24
25
25
21
21
18
12
7
2
-5
-5
-6
-6
-7
-14
-24
-51
-72
-91
-110
-124
-144
-134
-110
-83
-54
-32
-20
-9
-1
-1
7
7
13
10
11
7
3
0
2
2
2
-3
-6
-11
-10
-13
-14
-11
-12
-9
-5
-3
5
6
4
2
-1
-2
-3
-7
-9
-15
-14
-14
-14
-13
-15
-20
-18
-19
-29
-24
-23
-25
-21
-15
-10
-10
-9
-6
-4
-8
-7
-5
-4
-2
-1
5
8
13
12
8
13
16
15
25
34
34
28
15
-5
-32
-62
-87
-108
-113
-92
-59
-24
1
20
31
34
36
38
32
29
30
28
17
13
10
7
6
10
9
4
3
7
1
-4
-11
-15
-14
-18
-19
-21
-21
-21
-21
-22
-24
-28
-28
-33
-32
-28
-23
-13
-7
-3
6
8
12
9
11
11
14
15
17
18
13
12
15
16
19
22
24
25
26
30
26
23
22
16
21
23
28
34
36
29
20
-6
-31
-62
-88
-114
-129
-132
-113
-75
-44
-24
-12
-3
6
3
3
2
-3
-1
-3
0
2
7
9
13
11
5
-5
-12
-21
-18
-12
-7
-2
1
-3
-12
-22
-31
-30
-29
-29
-27
-20
-18
-16
-16
-15
-19
-17
-21
-20
-16
-14
-11
-10
-10
-11
-11
-5
-2
-8
-24
-43
-60
-70
-66
-60
-62
-62
-70
-66
-62
-62
-57
-59
-47
-34
-13
5
21
31
41
44
33
15
-9
-39
-70
-87
-87
-72
-41
-15
13
27
32
32
33
40
49
51
49
53
49
48
48
47
50
50
42
35
29
33
29
26
29
23
21
15
18
9
6
-2
-6
-9
-15
-19
-19
-23
-24
-26
-21
-19
-14
-10
-7
1
9
12
21
25
33
30
28
27
21
18
18
15
17
20
20
24
24
24
24
26
27
25
23
22
26
22
29
30
19
4
-18
-43
-79
-113
-139
-142
-126
-101
-70
-50
-38
-31
-24
-20
-16
-9
1
-1
-4
-12
-11
-15
-16
-19
-17
-10
2
9
8
1
0
-6
-11
-7
-10
-13
-18
-21
-23
-23
-19
-22
-23
-29
-27
-29
-32
-27
-22
-18
-14
-13
-11
-6
-7
-10
-8
-6
-7
-10
-13
-12
-12
-13
-8
-6
-5
1
-1
3
7
5
7
3
2
3
-1
5
7
14
17
11
4
-12
-34
-57
-83
-101
-106
-90
-60
-32
-10
10
24
30
32
32
29
24
23
24
19
20
20
19
29
39
39
32
28
18
11
10
6
2
3
5
7
6
3
1
0
-3
-4
-11
-21
-23
-41
-49
-48
-48
-45
-35
-27
-23
-19
-12
-12
-6
-5
-3
1
8
12
18
24
25
27
32
35
36
34
32
35
34
40
35
35
38
38
45
53
51
54
39
18
0
-33
-56
-71
-78
-66
-45
-16
6
13
15
10
5
1
-3
1
0
-3
-10
-14
-17
-20
-27
-25
-27
-37
-39
-48
-47
-41
-41
-37
-30
-28
-23
-21
-14
-17
-14
-19
-27
-40
-52
-53
-48
-46
-41
-39
-33
-30
-31
-26
-20
-15
-9
-5
-5
-3
-3
3
6
9
9
14
9
7
5
6
6
-1
3
5
6
14
15
20
22
19
19
23
28
18
10
-15
-35
-61
-88
-106
-114
-97
-67
-38
-12
5
11
16
15
18
18
20
23
19
14
2
-3
-6
-8
-6
-5
2
7
5
7
4
1
-5
-6
-2
2
3
1
-9
-14
-17
-24
-23
-24
-20
-24
-29
-31
-36
-37
-35
-34
-34
-33
-30
-31
-25
-20
-15
-5
-2
8
12
13
11
19
18
22
29
29
29
29
27
34
32
24
27
23
25
33
38
41
36
21
3
-24
-55
-79
-101
-107
-89
-68
-41
-16
-2
3
11
8
-3
-5
-11
-15
-17
-18
-20
-24
-27
-34
-34
-37
-34
-28
-24
-24
-29
-40
-45
-36
-41
-39
-39
-37
-39
-33
-28
-27
-30
-34
-39
-41
-40
-40
-42
-46
-45
-38
-39
-37
-30
-33
-27
-25
-19
-16
-13
-10
-2
-7
-5
-5
-3
-2
-5
-9
-4
-2
4
-7
-7
-10
-5
1
9
13
17
15
8
-6
-22
-45
-73
-95
-109
-104
-86
-61
-30
-5
16
23
33
38
40
46
43
39
34
33
30
30
28
23
23
22
17
17
17
24
25
24
26
19
22
23
28
24
21
15
5
-1
-14
-16
-25
-23
-23
-29
-28
-26
-23
-18
-13
-15
-16
-13
-12
-11
-11
-5
2
6
9
9
8
11
16
17
17
22
30
34
37
37
37
36
33
37
40
45
48
47
40
23
3
-22
-45
-72
-85
-77
-54
-24
3
21
35
39
37
35
32
22
13
10
8
8
7
-3
-14
-18
-27
-30
-20
-17
-8
-7
-7
-10
-17
-22
-26
-31
-27
-29
-30
-35
-43
-53
-52
-58
-50
-47
-44
-49
-49
-49
-48
-47
-47
-46
-40
-41
-35
-26
-22
-21
-22
-16
-14
-12
-10
-3
4
6
7
10
7
5
6
3
-3
-9
-8
-15
-6
2
10
15
13
4
-16
-40
-64
-91
-103
-105
-85
-55
-28
-8
10
16
20
20
22
26
28
28
30
28
28
26
23
24
24
24
22
24
19
18
12
10
11
8
8
3
3
7
6
2
1
-2
-6
-9
-8
-13
-16
-24
-30
-31
-31
-24
-23
-19
-20
-20
-14
-9
-8
-14
-22
-26
-31
-29
-27
-28
-23
-20
-16
-7
-7
-4
4
10
14
14
22
23
33
42
49
55
56
52
31
15
-10
-37
-61
-80
-78
-61
-30
0
13
29
36
35
34
33
33
32
24
25
24
20
15
14
8
4
6
13
17
10
-4
-11
-14
-17
-21
-23
-28
-38
-38
-45
-42
-45
-40
-46
-49
-51
-53
-50
-45
-41
-34
-29
-28
-29
-37
-42
-38
-35
-31
-29
-19
-20
-22
-22
-23
-21
-23
-25
-22
-15
-9
-1
9
12
11
18
14
9
12
11
17
17
23
18
-1
-12
-36
-64
-94
-111
-111
-87
-62
-32
-8
11
21
27
17
-1
-20
-36
-38
-37
-25
-17
-3
-1
8
14
17
16
24
23
25
27
16
6
1
-2
-5
-4
0
-4
-5
-2
-4
-4
-4
-1
-2
-4
-2
0
-5
-2
-6
-9
-9
-7
-6
-2
3
3
7
14
18
17
14
14
5
2
1
4
10
13
18
16
22
24
28
35
43
48
55
60
67
67
57
46
28
4
-26
-44
-62
-57
-37
-8
20
43
52
60
58
60
57
54
55
49
50
44
44
41
36
33
27
24
16
8
-3
-16
-21
-20
-17
-17
-13
-16
-18
-23
-33
-46
-54
-64
-69
-70
-64
-65
-62
-55
-58
-59
-61
-52
-43
-39
-31
-33
-33
-29
-28
-29
-32
-35
-31
-35
-39
-39
-36
-32
-28
-26
-23
-18
-16
-10
-6
-6
0
5
0
-1
-1
2
-6
-12
-29
-48
-73
-98
-111
-118
-114
-98
-74
-41
-14
6
17
27
37
38
44
48
46
49
46
48
44
45
41
44
44
39
39
34
32
31
28
25
23
28
21
16
10
3
2
-1
-5
-6
-9
-8
-15
-11
-10
-13
-11
-9
-4
-4
-3
4
7
7
2
-1
-4
-5
-6
-11
-13
-12
-9
-3
8
8
9
6
9
-1
5
7
2
5
6
7
17
32
40
42
34
21
-3
-26
-54
-73
-73
-53
-25
5
24
31
39
44
50
52
49
47
41
36
30
26
25
21
15
16
16
16
22
17
18
14
8
1
-9
-15
-24
-27
-29
-36
-40
-44
-55
-65
-75
-82
-84
-82
-75
-68
-66
-67
-64
-56
-56
-61
-54
-52
-43
-39
-36
-34
-33
-33
-34
-35
-35
-35
-33
-34
-25
-22
-14
-15
-13
-13
-11
-4
3
9
21
28
37
37
28
12
-19
-44
-70
-88
-100
-87
-63
-30
5
26
38
47
43
36
36
34
29
26
25
17
21
18
14
15
11
7
5
5
9
10
15
14
12
12
9
9
7
8
4
1
0
-6
-13
-23
-29
-32
-33
-30
-28
-27
-24
-16
-14
-8
-4
-7
-5
-4
-7
-5
0
0
-3
-7
-6
-7
-4
-2
-1
3
8
2
1
-6
-7
-10
-13
-16
-19
-20
-24
-21
-31
-40
-56
-77
-94
-108
-117
-114
-100
-76
-43
-9
17
37
52
59
63
64
66
68
66
69
68
72
66
61
59
54
45
43
46
46
40
37
27
21
20
17
9
8
2
-3
-6
-17
-21
-29
-26
-25
-28
-33
-33
-37
-40
-40
-39
-40
-41
-58
-72
-85
-89
-95
-100
-100
-95
-80
-54
-33
-23
-20
-17
-15
-13
-10
-10
-10
-15
-11
-9
-6
2
3
10
20
30
22
17
4
-17
-37
-59
-75
-74
-59
-33
-7
15
27
32
32
31
30
29
26
24
22
18
12
3
4
1
6
3
3
6
5
7
7
7
7
7
14
12
12
16
13
12
10
3
1
-5
-6
-3
-3
-5
-7
-10
-5
-3
-2
-2
3
7
8
10
9
12
10
10
12
14
11
11
12
7
8
9
14
12
9
10
12
8
10
8
8
13
20
20
22
16
1
-17
-37
-64
-80
-89
-81
-61
-30
3
20
38
47
51
54
53
45
38
34
29
25
24
25
23
22
22
18
14
18
13
11
10
8
2
3
5
5
6
-2
-11
-18
-26
-27
-29
-32
-38
-43
-54
-65
-68
-70
-74
-73
-74
-70
-69
-67
-61
-53
-48
-48
-48
-48
-49
-52
-51
-51
-39
-31
-24
-16
-16
-19
-18
-16
-21
-23
-21
-23
-24
-22
-14
-11
-12
-12
-22
-41
-54
-82
-93
-100
-97
-73
-45
-21
1
13
23
23
18
16
12
7
10
3
6
3
7
6
7
7
4
7
9
8
10
10
8
6
8
8
4
-1
3
2
3
-1
-4
-7
-5
-8
-8
-11
-15
-17
-21
-19
-15
-11
-5
-4
0
2
2
4
0
-2
1
2
4
1
-3
-4
-6
-4
-8
-6
-7
-11
-4
4
2
-1
4
13
22
27
30
24
9
-12
-32
-57
-78
-95
-92
-66
-40
-11
10
24
36
37
39
39
46
46
50
50
46
37
37
33
35
34
34
32
31
34
34
32
25
22
22
23
20
15
14
10
5
-2
-4
-13
-12
-20
-21
-21
-25
-32
-35
-40
-45
-45
-41
-46
-49
-55
-57
-60
-65
-71
-70
-62
-61
-52
-53
-52
-49
-41
-41
-33
-24
-16
-10
-8
-3
3
2
2
3
4
7
4
-9
-29
-46
-67
-89
-99
-111
-103
-77
-44
-18
6
21
36
40
38
30
25
24
21
25
32
29
29
31
27
23
21
17
16
14
12
11
16
12
6
-3
-2
-8
-10
-11
-15
-18
-22
-20
-23
-20
-19
-15
-8
-13
-9
-12
-11
-10
-13
-13
-13
-13
-10
-10
-15
-13
-11
-6
-6
-8
-3
0
2
-1
4
4
2
7
8
8
12
12
6
8
13
16
20
15
5
-5
-29
-56
-90
-107
-111
-96
-70
-38
-19
1
14
23
34
33
32
34
33
32
33
28
24
20
17
23
20
17
19
15
16
17
15
18
19
18
11
11
12
7
7
8
4
-2
-6
-7
-15
-18
-20
-19
-24
-25
-29
-31
-35
-37
-41
-38
-37
-34
-32
-36
-40
-43
-53
-56
-54
-59
-56
-47
-39
-33
-38
-38
-37
-28
-21
-19
-18
-12
-9
1
0
-7
-17
-34
-57
-81
-104
-122
-117
-93
-59
-29
-9
4
17
26
29
31
35
40
41
43
43
37
32
27
28
23
20
13
15
14
12
10
12
6
7
1
-1
-6
-6
-10
-15
-17
-19
-20
-20
-19
-23
-17
-12
-12
-10
-5
-4
3
11
14
16
18
23
26
32
31
27
25
21
22
20
20
22
19
24
28
28
25
22
20
8
1
-1
7
13
19
23
14
5
-10
-32
-52
-75
-92
-96
-80
-53
-27
1
14
25
28
31
34
34
31
28
26
28
28
29
25
26
31
36
35
36
37
34
31
29
23
21
24
22
19
13
10
6
1
-2
-5
-7
-7
-10
-12
-13
-10
-7
-5
-6
-3
-1
-4
-10
-11
-15
-16
-19
-26
-35
-37
-37
-32
-35
-31
-36
-39
-49
-51
-48
-47
-45
-39
-38
-39
-34
-33
-31
-24
-16
-20
-29
-53
-80
-108
-137
-149
-151
-136
-106
-77
-55
-42
-35
-28
-16
-9
5
12
14
13
13
12
7
5
10
8
9
7
8
3
8
3
6
3
3
4
0
-4
0
2
-4
-9
-11
-21
-19
-24
-22
-26
-29
-26
-20
-15
-12
-17
-11
-17
-12
-13
-10
-10
-9
-7
-4
-4
-7
-6
-9
-4
2
2
4
0
-5
-3
2
2
6
9
18
20
27
22
23
16
6
-12
-29
-60
-91
-110
-120
-108
-77
-50
-22
-4
10
16
26
30
29
32
31
24
18
18
19
25
25
22
21
22
22
16
14
18
15
18
20
17
15
10
7
9
6
9
5
4
-3
-4
-6
-10
-6
-3
-5
-6
-7
-3
1
-1
6
10
12
16
13
13
14
11
5
-2
-4
-4
-11
-12
-20
-29
-24
-20
-19
-22
-29
-39
-45
-40
-39
-33
-33
-39
-48
-64
-94
-112
-132
-145
-139
-120
-97
-63
-33
-12
6
15
20
15
10
5
6
-2
-2
3
3
4
3
6
7
10
10
16
15
19
23
25
25
22
18
14
9
5
3
2
-3
-5
-7
-6
-14
-15
-15
-14
-12
-9
-4
0
-5
-9
-13
-13
-6
-5
0
-1
3
8
7
3
4
8
10
12
16
22
26
27
22
26
22
20
17
20
25
29
28
17
8
-14
-39
-60
-89
-109
-108
-92
-55
-20
2
21
30
32
26
20
20
21
21
21
21
22
25
14
13
10
6
3
2
-1
2
-3
0
-1
3
4
2
1
-2
-1
-2
2
5
2
-3
-14
-13
-11
-17
-14
-14
-15
-19
-21
-19
-13
-12
-6
-6
-7
-3
-4
-3
-3
-7
-9
-11
-6
-1
2
2
1
2
3
0
-5
-10
-18
-15
-6
2
5
-3
-19
-44
-70
-103
-135
-154
-154
-125
-80
-40
-19
-11
-3
10
19
24
26
23
22
19
16
6
4
1
-2
-7
-6
-6
-10
-9
-6
-1
-3
0
3
8
9
8
11
14
15
14
9
1
-4
-11
-21
-17
-16
-21
-21
-18
-13
-6
2
3
3
6
2
3
4
2
6
1
-2
-7
-10
-11
-7
-2
4
8
13
16
15
20
25
26
33
42
49
54
57
48
33
16
-5
-35
-62
-84
-90
-74
-49
-14
11
31
44
49
47
48
48
53
47
43
43
39
37
31
31
31
28
27
27
23
23
26
24
16
8
8
6
6
6
5
5
4
1
4
-1
-7
-7
-11
-14
-14
-15
-10
-8
-1
1
7
9
7
7
4
4
-1
2
4
4
3
9
10
12
15
15
15
9
7
7
4
0
5
5
14
17
14
3
-19
-36
-60
-86
-110
-135
-145
-136
-113
-79
-48
-25
-7
-2
-9
-13
-17
-21
-16
-5
10
19
21
21
18
21
23
24
21
7
4
-2
0
-2
-5
-8
-5
-3
-8
-15
-20
-17
-18
-19
-16
-17
-12
-6
-10
-9
-12
-17
-19
-16
-17
-22
-21
-17
-18
-17
-18
-16
-13
-12
-10
-8
-13
-11
-11
-9
-9
-5
-3
-5
2
1
0
4
7
15
24
32
29
21
10
-9
-37
-60
-83
-92
-89
-69
-44
-21
4
22
30
39
40
45
37
37
32
26
22
19
16
8
8
7
6
-3
-3
-6
3
1
2
4
4
4
1
-4
-9
-13
-15
-21
-26
-37
-40
-44
-45
-47
-45
-40
-37
-41
-37
-27
-21
-11
-1
5
7
14
16
19
18
13
12
13
14
16
21
25
22
23
25
27
23
23
26
23
23
21
24
19
6
-14
-32
-63
-90
-109
-125
-117
-99
-73
-54
-39
-36
-28
-27
-31
-28
-25
-23
-18
-12
-11
-16
-22
-25
-24
-23
-23
-29
-22
-17
-19
-21
-23
-20
-26
-26
-24
-30
-26
-26
-32
-30
-34
-30
-32
-26
-26
-18
-15
-13
-10
-9
-10
-11
-13
-16
-15
-17
-23
-19
-16
-16
-11
-10
-9
-7
-2
-3
6
4
4
-3
0
-5
-2
-4
-10
-4
3
11
16
17
9
-7
-21
-44
-68
-90
-101
-95
-64
-33
-4
24
34
36
38
37
31
34
33
35
33
23
18
13
13
13
13
13
14
14
13
14
8
6
6
5
4
2
4
2
2
-1
-9
-11
-23
-29
-32
-31
-28
-23
-23
-20
-18
-20
-17
-13
-16
-13
-9
-1
8
17
23
27
24
27
22
22
20
16
14
11
9
6
14
14
15
16
16
22
29
31
30
21
3
-13
-36
-59
-89
-104
-98
-76
-56
-35
-20
-11
-9
-4
-6
-12
-7
-7
-5
-8
-13
-16
-19
-16
-11
-11
-13
-17
-18
-20
-24
-28
-31
-29
-24
-18
-13
-14
-22
-28
-33
-34
-40
-41
-43
-46
-48
-46
-46
-40
-37
-31
-22
-21
-15
-12
-20
-21
-27
-35
-37
-39
-40
-39
-35
-33
-28
-23
-22
-21
-19
-17
-19
-20
-18
-19
-17
-13
-7
0
6
8
1
-17
-34
-63
-85
-102
-113
-100
-72
-38
-6
16
30
42
46
49
53
56
54
49
45
44
42
39
39
39
40
35
34
36
32
31
29
28
28
23
23
21
16
8
5
6
1
-6
-8
-12
-16
-17
-17
-19
-19
-19
-20
-23
-26
-41
-55
-60
-64
-65
-57
-45
-33
-26
-20
-12
-3
5
11
18
25
27
31
31
27
24
22
18
19
26
33
40
46
41
35
17
-9
-34
-63
-84
-94
-87
-58
-37
-17
5
15
28
18
19
13
6
6
4
4
-6
-13
-20
-24
-19
-12
-13
-17
-24
-23
-17
-16
-19
-26
-30
-30
-35
-32
-25
-18
-10
-15
-21
-21
-27
-28
-28
-31
-36
-36
-35
-35
-35
-34
-32
-30
-33
-28
-22
-13
-11
1
-3
2
4
1
0
4
2
5
4
5
8
8
14
9
12
15
21
28
31
29
24
12
-7
-30
-56
-75
-87
-80
-58
-25
2
21
42
46
53
46
46
39
37
37
39
36
29
28
25
23
27
28
30
28
28
33
31
32
33
31
31
27
23
20
15
3
2
-6
-12
-18
-21
-24
-29
-28
-28
-29
-25
-17
-14
-6
-10
-7
-9
-8
-5
-5
-7
-3
-3
-9
-6
-5
-3
-1
0
-4
0
-1
6
13
13
17
19
25
33
39
43
43
35
17
-2
-32
-65
-84
-91
-72
-42
-13
10
28
43
46
47
47
48
43
37
30
28
19
14
11
10
7
0
-9
-15
-18
-16
-12
-23
-32
-32
-32
-26
-23
-24
-24
-26
-31
-36
-39
-40
-43
-48
-48
-50
-50
-40
-35
-35
-27
-29
-29
-31
-37
-36
-32
-28
-24
-19
-20
-21
-17
-12
-4
4
6
11
14
17
12
11
7
5
5
9
11
19
26
29
27
16
-1
-24
-57
-80
-103
-108
-98
-70
-41
-20
-3
11
18
17
18
15
16
16
13
14
10
13
16
20
17
15
15
11
11
11
9
10
10
11
8
2
-1
-3
-5
-9
-15
-17
-20
-28
-29
-30
-28
-25
-25
-25
-25
-23
-28
-31
-36
-39
-28
-22
-21
-16
-13
-17
-18
-24
-19
-23
-27
-21
-17
-15
-14
-10
-13
-6
0
2
3
-1
11
20
33
39
32
19
3
-19
-40
-67
-86
-92
-76
-47
-19
4
19
27
32
34
33
31
26
19
16
17
16
19
20
21
14
14
9
5
-5
-12
-16
-11
-12
-9
-14
-20
-20
-27
-26
-35
-41
-45
-48
-53
-60
-70
-72
-63
-57
-52
-53
-56
-50
-40
-37
-30
-24
-15
-11
-11
-15
-15
-18
-21
-20
-11
-9
-12
-11
-10
-9
0
5
11
19
28
34
40
46
53
60
58
48
31
9
-22
-50
-77
-80
-68
-37
-9
13
32
41
43
44
42
39
35
35
36
32
29
28
26
28
26
27
26
26
28
27
24
19
20
22
21
20
19
16
7
5
2
-7
-5
-9
-11
-13
-13
-16
-14
-16
-17
-12
-14
-12
-5
2
-2
0
-4
-7
-10
-10
-14
-14
-12
-8
-10
-11
-6
0
0
2
-2
-7
-11
-10
-7
-7
2
10
21
29
32
32
21
4
-25
-52
-69
-87
-85
-66
-37
-10
16
29
33
32
30
27
25
22
24
25
21
17
10
7
7
1
5
7
6
1
-3
-3
-7
-7
-9
-12
-21
-31
-36
-44
-42
-44
-56
-64
-77
-76
-73
-68
-66
-61
-63
-66
-62
-56
-50
-52
-46
-47
-48
-46
-49
-52
-46
-43
-42
-35
-31
-32
-23
-22
-13
-13
-13
-10
-14
-10
-12
-14
-6
-4
0
12
12
5
-6
-18
-42
-71
-88
-100
-98
-76
-42
-17
5
21
33
34
35
30
26
20
19
19
18
18
16
15
16
13
9
8
8
5
0
3
3
1
6
4
6
4
0
4
-3
-5
-7
-6
-11
-15
-16
-16
-14
-17
-19
-16
-14
-15
-8
0
5
5
12
10
13
13
8
10
9
8
8
3
1
1
4
-1
1
4
8
2
8
8
12
20
30
36
33
25
7
-18
-44
-69
-85
-89
-76
-47
-16
7
26
37
42
38
35
38
38
37
42
43
39
42
39
40
40
30
29
23
25
22
23
23
32
31
19
22
15
6
6
0
-1
-6
-7
-15
-16
-18
-20
-18
-22
-28
-33
-37
-45
-48
-51
-42
-39
-43
-45
-40
-51
-52
-51
-42
-39
-36
-30
-27
-27
-23
-23
-19
-18
-15
-12
-8
-3
-4
1
8
9
16
12
-5
-29
-57
-80
-103
-121
-118
-96
-72
-39
-16
-1
17
28
36
36
37
32
24
15
12
8
12
20
21
18
16
12
9
6
8
10
7
4
1
0
-4
-5
-10
-13
-18
-22
-27
-27
-26
-25
-23
-21
-17
-19
-18
-20
-14
-7
-2
1
-5
-5
-5
0
3
1
3
-7
-10
-14
-16
-12
-6
-4
0
0
2
5
2
4
7
3
9
12
15
21
19
7
-9
-26
-45
-72
-98
-107
-96
-73
-44
-17
3
11
12
19
20
21
24
27
31
27
25
20
17
18
22
24
23
24
21
23
22
22
24
20
17
20
15
14
12
8
6
2
-3
-6
-8
-13
-18
-18
-17
-12
-12
-12
-13
-14
-16
-18
-20
-27
-28
-32
-33
-33
-33
-32
-30
-33
-40
-44
-41
-36
-34
-31
-31
-37
-38
-37
-28
-12
-1
9
14
7
-4
-17
-35
-66
-90
-111
-119
-111
-88
-61
-34
-20
-6
4
5
9
6
5
8
15
19
22
21
21
24
22
23
17
12
9
7
4
2
-2
-4
-3
-8
-4
-5
-8
-10
-16
-26
-31
-32
-34
-36
-33
-37
-38
-35
-32
-25
-20
-18
-14
-9
-11
-31
-47
-63
-68
-75
-78
-75
-70
-54
-44
-29
-23
-12
-6
0
3
8
14
20
26
38
46
53
51
53
49
34
22
-1
-34
-60
-76
-77
-55
-31
-3
19
36
44
54
49
46
40
38
27
26
28
33
35
38
38
37
34
33
32
32
32
37
39
41
43
37
37
37
33
30
29
25
19
16
11
8
7
4
2
6
6
6
10
12
12
9
9
9
9
6
6
8
4
-8
-8
-14
-20
-25
-28
-23
-18
-19
-15
-21
-19
-18
-12
-8
-5
-3
4
-1
-5
-12
-27
-46
-73
-96
-113
-115
-101
-74
-51
-24
-8
9
10
12
1
2
4
4
7
8
10
11
5
4
-2
-1
7
7
8
11
13
15
14
12
8
7
9
4
-2
-6
-9
-8
-11
-17
-23
-26
-33
-35
-33
-29
-25
-27
-27
-22
-20
-18
-18
-16
-16
-12
-13
-14
-13
-13
-12
-13
-7
-5
3
2
3
14
15
18
19
19
20
23
29
27
30
24
13
-7
-24
-47
-72
-92
-92
-71
-42
-22
-6
1
5
11
12
9
10
11
17
19
24
29
31
25
18
12
12
5
7
8
5
4
7
13
11
14
13
7
-1
-5
-9
-6
-5
-5
-4
-3
2
1
-1
-2
0
1
2
4
9
9
12
16
21
24
28
23
21
22
15
20
19
16
15
13
11
6
-1
-9
-15
-17
-17
-17
-17
-16
-16
-18
-29
-40
-58
-79
-104
-124
-138
-139
-121
-90
-60
-43
-24
-15
-13
-2
1
7
11
16
13
10
3
-2
-8
-8
-15
-14
-13
-13
-14
-17
-14
-9
-12
-8
-10
-3
-3
-3
-3
-5
-8
-17
-21
-29
-33
-33
-35
-29
-28
-30
-23
-21
-23
-24
-21
-16
-16
-17
-8
-13
-13
-13
-16
-21
-19
-19
-19
-12
-9
-3
4
5
10
10
11
13
12
16
24
32
37
31
32
21
8
-20
-56
-87
-112
-114
-97
-63
-31
-5
19
32
37
35
32
29
25
26
19
17
11
11
9
8
12
12
10
13
12
16
10
4
-9
-14
-16
-14
-13
-14
-13
-12
-9
-4
-8
-3
-11
-14
-17
-19
-15
-15
-13
-2
6
10
11
17
15
19
19
19
23
24
28
24
21
22
19
20
19
17
22
25
23
20
17
16
17
17
26
29
28
12
-16
-44
-83
-114
-144
-159
-148
-122
-87
-61
-34
-9
7
17
9
4
-5
-9
-11
-15
-14
-17
-18
-20
-15
-6
-7
-7
-7
-8
-7
-9
-11
-12
-16
-17
-16
-20
-17
-25
-27
-31
-30
-33
-30
-30
-26
-18
-16
-16
-13
-12
-21
-21
-23
-18
-14
-15
-13
-11
-11
-7
-11
-11
-10
-17
-15
-16
-16
-11
-8
-12
-10
-9
-4
-4
-7
-2
8
14
19
21
9
-8
-29
-46
-69
-91
-97
-89
-66
-36
-13
4
12
24
29
34
27
27
29
36
36
33
34
27
26
25
24
23
24
23
16
13
5
3
10
7
6
-4
0
-2
-5
-6
-9
-19
-29
-33
-35
-32
-35
-31
-26
-22
-18
-17
-15
-12
-13
-8
-5
-1
6
14
16
19
24
24
28
28
28
27
30
24
26
22
18
20
15
19
22
23
30
34
32
23
12
-14
-50
-81
-102
-116
-103
-80
-51
-30
-13
-8
-2
-4
-9
-9
-10
-6
-4
-13
-16
-17
-12
-8
-3
-4
-13
-17
-18
-16
-18
-12
-6
-5
4
7
9
-1
0
-7
-13
-18
-21
-25
-24
-29
-27
-29
-28
-29
-33
-39
-41
-37
-26
-21
-10
-9
-9
-12
-9
-9
-9
-10
-12
-14
-17
-18
-25
-22
-25
-22
-24
-24
-29
-23
-18
-17
-10
-1
10
13
6
-10
-31
-55
-79
-104
-113
-101
-77
-44
-19
6
20
28
30
29
28
31
27
29
30
28
20
19
14
9
6
9
11
16
16
16
12
14
13
11
6
4
-4
-13
-18
-27
-28
-33
-34
-34
-32
-33
-29
-28
-22
-26
-22
-22
-22
-19
-23
-16
-16
-15
-23
-25
-17
-11
-2
-5
-5
3
10
12
18
28
29
34
39
41
41
39
43
51
59
61
57
39
25
2
-27
-56
-74
-74
-55
-26
-2
20
32
40
45
41
40
37
36
33
27
20
16
7
-2
-8
-13
-17
-16
-23
-27
-29
-29
-27
-29
-29
-29
-29
-17
-14
-18
-24
-33
-37
-37
-34
-33
-36
-35
-40
-42
-45
-47
-47
-47
-40
-41
-37
-35
-32
-30
-29
-26
-20
-25
-16
-13
-8
-9
2
6
7
4
6
-1
-6
-13
-13
-18
-13
3
14
23
27
16
0
-21
-51
-82
-104
-115
-104
-76
-43
-9
12
28
40
47
49
51
51
53
51
49
48
48
54
57
51
51
51
50
44
45
43
43
36
32
27
30
33
29
28
21
22
15
10
6
0
-5
-8
-4
-6
-9
-8
-16
-15
-10
-3
4
8
8
-2
-9
-9
-11
-9
-9
-11
-6
-5
-4
1
8
12
14
17
22
23
27
33
40
43
43
51
51
52
39
21
-6
-28
-54
-80
-87
-73
-51
-22
4
23
32
33
34
26
17
18
17
15
11
9
5
-5
-10
-12
-16
-20
-22
-28
-28
-30
-33
-34
-37
-40
-41
-48
-54
-64
-73
-79
-83
-82
-84
-78
-72
-56
-45
-36
-30
-35
-33
-31
-22
-18
-21
-23
-20
-21
-21
-21
-16
-25
-29
-23
-21
-19
-19
-10
-10
-6
4
6
6
9
5
2
-5
1
5
6
2
-8
-31
-52
-75
-96
-109
-109
-101
-80
-47
-16
4
23
32
40
42
40
43
42
42
42
47
49
44
48
46
44
44
34
32
33
32
31
32
28
29
28
23
16
15
8
7
7
6
4
2
6
8
6
-1
-3
-9
-10
-9
-7
-7
-8
-6
-3
-3
2
2
-7
-9
-6
-5
-6
0
-7
-6
-5
-5
-8
-8
-6
0
-5
-1
4
12
22
26
28
14
1
-21
-44
-69
-86
-89
-83
-60
-28
0
21
37
44
43
47
45
44
41
37
37
32
32
32
30
27
21
16
11
2
-2
-4
-5
-6
-15
-25
-37
-36
-37
-45
-44
-52
-58
-66
-73
-79
-74
-69
-72
-68
-68
-71
-72
-67
-66
-56
-50
-39
-34
-31
-31
-29
-31
-31
-29
-30
-31
-31
-28
-16
-15
-10
-11
-9
-10
-14
-14
-15
-15
-8
3
11
19
24
15
4
-16
-51
-86
-104
-105
-85
-53
-27
0
11
16
18
22
19
17
18
21
19
19
17
18
15
11
8
9
6
5
6
3
4
-3
3
3
3
3
6
4
3
-7
-6
-11
-15
-20
-21
-21
-16
-16
-22
-24
-25
-27
-23
-14
-20
-19
-16
-10
2
5
8
-2
-7
-10
-8
-11
-16
-14
-10
-11
-7
-8
-5
-2
-7
-17
-22
-29
-35
-39
-40
-55
-64
-80
-97
-109
-121
-123
-125
-108
-81
-52
-19
9
36
58
65
75
79
84
77
76
68
62
61
56
59
63
64
66
59
57
58
53
50
39
38
29
26
22
18
13
10
3
4
-2
-10
-16
-17
-18
-21
-25
-28
-28
-24
-21
-24
-25
-33
-39
-43
-39
-40
-36
-37
-31
-24
-12
-10
-8
-14
-11
-7
3
10
8
5
-2
-7
-8
-8
-8
3
11
7
4
-8
-26
-49
-80
-99
-106
-89
-62
-25
13
29
39
42
39
38
34
32
23
16
12
15
19
24
20
16
16
12
7
11
7
4
-2
-7
-12
-12
-7
-8
-6
-9
-11
-15
-17
-14
-17
-13
-18
-13
-15
-12
-7
-6
-5
-6
-5
0
0
3
3
-1
2
6
4
8
9
9
13
16
15
12
12
12
15
16
16
14
11
13
10
14
17
23
25
20
9
-11
-38
-68
-85
-100
-98
-82
-51
-16
3
20
29
28
30
29
30
26
26
24
26
27
26
28
30
32
36
36
33
33
32
23
19
14
16
9
12
9
10
7
-4
-6
-13
-23
-26
-22
-25
-27
-29
-33
-36
-38
-40
-47
-57
-59
-55
-52
-53
-52
-50
-51
-45
-47
-41
-37
-29
-23
-17
-23
-28
-29
-24
-21
-15
-16
-25
-18
-17
-7
-5
-14
-28
-48
-71
-92
-113
-139
-146
-136
-119
-98
-67
-45
-24
-9
12
15
24
30
34
36
39
36
33
30
22
16
8
4
5
7
7
3
6
2
0
0
-5
-6
0
-4
-6
-3
-6
-6
-8
-11
-11
-11
-10
-8
-9
-6
2
-1
-2
-6
-1
2
8
9
8
4
1
4
2
-5
-3
-3
4
11
8
5
10
16
14
14
9
9
4
6
9
10
9
3
-9
-27
-49
-76
-100
-115
-109
-91
-66
-37
-12
3
11
13
10
8
7
14
16
15
22
21
21
23
16
20
19
25
25
24
28
29
27
27
33
27
25
19
19
15
14
12
7
4
1
1
0
-7
-7
-4
-7
-4
0
1
-5
-9
-9
-14
-17
-14
-17
-24
-22
-30
-34
-33
-28
-29
-28
-27
-27
-32
-34
-38
-37
-31
-26
-19
-6
2
10
3
-13
-29
-50
-66
-90
-109
-115
-104
-76
-45
-23
-8
5
7
8
5
5
9
6
8
8
7
6
8
8
16
18
18
23
28
24
20
16
7
2
2
0
0
-7
-7
-8
-11
-10
-12
-16
-22
-22
-25
-25
-26
-26
-26
-25
-21
-22
-20
-18
-16
-12
-12
-11
-10
-9
-3
2
5
9
12
20
24
29
31
32
34
36
42
37
36
34
36
46
49
51
41
32
12
-17
-41
-65
-75
-65
-42
-15
7
25
31
38
40
41
42
40
44
41
37
38
38
35
38
30
24
21
17
16
14
14
11
10
10
12
6
-1
1
-9
-11
-14
-16
-19
-17
-14
-12
-12
-17
-15
-17
-14
-14
-13
-6
-7
-3
2
6
7
11
8
8
6
8
4
3
6
6
3
2
1
-11
-13
-22
-30
-37
-34
-37
-41
-41
-44
-43
-46
-53
-76
-104
-135
-158
-164
-153
-124
-90
-56
-39
-30
-24
-18
-9
5
13
12
12
10
5
4
-7
-9
-16
-16
-15
-10
-10
-9
-15
-16
-11
-5
3
7
7
6
8
-2
-9
-14
-19
-23
-29
-33
-38
-40
-42
-42
-47
-64
-71
-67
-58
-47
-39
-34
-29
-25
-24
-19
-18
-14
-18
-16
-16
-11
-11
-8
-4
-5
3
2
3
6
9
12
17
29
36
37
28
16
-9
-36
-67
-95
-110
-116
-96
-63
-32
-2
14
23
28
29
27
30
28
29
21
16
13
9
4
2
3
-2
-5
-4
-3
1
2
0
-6
-7
-8
-9
-12
-17
-15
-20
-20
-20
-19
-23
-20
-21
-16
-17
-13
-11
-8
-7
-4
-2
7
14
18
19
19
22
19
20
21
22
25
24
26
24
25
26
23
22
19
18
15
13
18
23
27
29
23
16
-8
-37
-62
-92
-107
-118
-106
-77
-45
-27
-12
-4
-2
-6
-4
-11
-13
-12
-7
-1
6
12
7
6
4
-2
2
7
5
9
10
7
2
-5
-7
-9
-9
-8
-17
-18
-16
-21
-24
-22
-21
-19
-15
-14
-8
-13
-11
-15
-18
-20
-20
-18
-19
-10
-8
-3
1
7
7
6
12
15
17
18
18
17
14
14
15
14
14
15
18
17
27
34
37
31
18
-1
-31
-53
-75
-82
-80
-60
-32
-8
12
26
34
36
42
40
40
33
40
41
47
42
39
33
25
23
23
22
23
18
22
20
21
16
13
13
11
14
7
10
9
4
0
-12
-17
-21
-23
-33
-32
-32
-35
-33
-34
-30
-25
-24
-14
-14
-5
-7
-3
4
11
16
23
23
32
29
28
24
24
23
20
20
21
21
22
25
30
35
33
21
-3
-34
-72
-103
-129
-139
-127
-102
-78
-51
-29
-25
-21
-22
-26
-20
-10
4
4
-8
-18
-26
-29
-31
-31
-35
-33
-33
-35
-32
-32
-28
-22
-19
-15
-17
-18
-21
-20
-21
-23
-29
-31
-37
-41
-43
-41
-35
-30
-26
-27
-32
-34
-32
-30
-19
-9
8
12
8
3
3
3
-2
-6
-6
-2
-7
-6
-6
-4
2
-7
-5
-5
-5
-10
-8
-7
1
4
11
14
6
-11
-35
-60
-95
-122
-131
-113
-73
-33
4
32
46
50
49
46
46
44
46
43
45
39
35
36
37
35
33
34
33
35
33
31
29
33
30
26
20
15
13
9
3
-3
-7
-9
-16
-21
-20
-21
-21
-16
-16
-16
-21
-22
-20
-21
-21
-17
-13
-9
-8
-6
0
-1
2
-1
2
4
6
16
19
23
27
31
32
33
37
30
34
38
41
47
47
43
30
9
-24
-61
-80
-95
-93
-67
-36
-6
5
17
20
19
16
15
10
4
3
-4
-10
-15
-20
-22
-25
-31
-32
-35
-33
-35
-30
-35
-36
-34
-33
-37
-34
-36
-36
-35
-35
-35
-33
-30
-33
-37
-43
-39
-38
-35
-30
-37
-34
-34
-32
-33
-28
-24
-22
-25
-23
-26
-21
-18
-8
3
4
9
9
6
1
-8
-8
-12
-11
-11
-11
-5
3
10
15
14
2
-8
-24
-44
-75
-98
-116
-115
-94
-65
-30
-4
11
21
28
23
24
22
22
24
21
19
16
16
15
15
19
21
22
18
12
5
1
0
2
4
7
5
4
2
-2
-5
-6
-9
-16
-19
-20
-24
-37
-42
-46
-46
-44
-42
-33
-27
-20
-15
-14
-17
-15
-15
-17
-21
-20
-16
-10
-8
-6
-1
1
0
2
5
6
9
13
17
24
32
40
48
50
48
40
25
6
-29
-62
-82
-85
-71
-38
-6
17
32
44
48
47
47
44
41
33
26
20
18
14
9
5
8
8
-6
-16
-22
-22
-24
-32
-39
-41
-43
-44
-44
-43
-44
-52
-56
-65
-60
-54
-49
-49
-56
-58
-61
-57
-53
-49
-48
-38
-30
-24
-21
-21
-22
-27
-26
-25
-26
-23
-24
-19
-17
-11
-6
-6
5
8
12
19
16
17
14
16
18
15
15
9
-2
-19
-29
-52
-73
-84
-92
-81
-56
-25
2
19
27
28
32
27
27
26
23
20
22
22
20
22
21
21
23
27
25
30
28
28
30
32
33
28
22
18
12
11
15
9
14
12
6
1
1
-3
-5
-4
-1
6
10
3
2
0
3
8
10
4
6
10
8
6
4
6
8
10
5
6
7
6
8
7
8
4
11
14
20
24
27
37
44
41
36
27
14
-12
-34
-52
-66
-65
-44
-18
11
32
44
52
57
55
51
47
48
40
37
38
36
36
31
27
30
28
19
16
9
12
9
5
-6
-11
-12
-20
-26
-34
-42
-45
-47
-45
-45
-52
-64
-68
-66
-63
-64
-60
-53
-51
-40
-32
-27
-23
-20
-17
-17
-25
-29
-31
-26
-25
-25
-16
-10
-6
-7
-13
-17
-16
-14
-8
-2
4
5
8
10
14
21
18
14
1
-25
-54
-78
-87
-73
-49
-22
9
24
37
45
46
46
40
39
36
32
32
30
29
29
28
24
22
19
13
16
18
13
9
2
-3
-9
-10
-10
-9
-12
-13
-12
-14
-12
-15
-12
-16
-25
-26
-28
-20
-19
-13
-9
-8
-5
0
-4
-6
-3
-3
1
8
3
1
3
-4
-5
-6
-5
0
4
6
8
3
2
2
6
5
10
17
24
24
20
3
-11
-26
-55
-79
-92
-93
-74
-51
-19
3
22
33
36
36
33
35
34
36
34
32
32
23
20
20
16
14
14
12
10
9
10
4
2
-4
-5
-8
-16
-18
-22
-28
-33
-38
-44
-47
-51
-60
-66
-68
-68
-73
-74
-68
-68
-63
-56
-59
-60
-63
-65
-63
-54
-51
-49
-45
-39
-40
-44
-43
-35
-29
-21
-19
-22
-18
-16
-16
-14
-19
-20
-13
-8
-8
-9
-15
-36
-65
-100
-128
-145
-133
-96
-60
-24
7
27
34
39
35
34
28
24
27
28
26
27
21
22
19
14
9
5
3
3
2
5
7
7
4
2
-1
-1
-1
0
-3
-5
-8
-9
-5
-7
-7
-5
-9
-10
-7
-3
-4
-4
-7
-8
-4
-7
0
3
4
4
7
13
15
14
12
3
5
3
3
4
4
11
14
14
15
11
16
20
24
27
21
18
6
-10
-35
-59
-80
-91
-75
-53
-29
-10
11
17
26
28
28
32
23
24
28
32
39
38
41
39
41
40
36
35
34
30
27
27
23
24
18
17
14
8
5
1
2
-5
-8
-10
-19
-19
-22
-23
-22
-23
-24
-30
-35
-39
-45
-47
-49
-52
-50
-55
-60
-54
-56
-53
-51
-44
-42
-40
-35
-34
-28
-25
-24
-25
-18
-15
-9
-13
-12
-2
9
13
7
-11
-31
-48
-79
-101
-116
-116
-96
-72
-40
-19
-1
17
27
32
39
37
38
40
38
29
25
24
24
23
24
24
19
16
12
5
3
3
4
8
4
3
-6
-13
-17
-25
-21
-24
-26
-25
-23
-25
-25
-23
-17
-11
-10
-7
1
-2
0
0
0
5
3
-1
4
8
5
10
7
6
7
16
22
22
17
19
21
18
20
20
23
23
27
32
35
34
16
-6
-24
-48
-74
-98
-108
-93
-66
-42
-20
-7
2
10
14
21
18
16
22
19
19
17
17
19
21
28
33
37
39
35
32
27
22
24
24
22
19
17
13
10
7
3
-1
-3
-6
-13
-10
-16
-15
-16
-10
-10
-12
-13
-13
-15
-16
-21
-23
-30
-35
-37
-37
-37
-36
-37
-27
-19
-19
-23
-24
-36
-31
-35
-30
-22
-13
-13
-23
-18
-19
-9
-5
-1
-9
-24
-48
-79
-106
-113
-104
-81
-48
-25
-11
2
8
12
9
9
11
16
20
25
32
34
31
28
27
25
21
14
7
7
7
-1
-3
-5
-7
-13
-15
-17
-21
-22
-21
-26
-24
-27
-31
-31
-36
-36
-34
-33
-29
-22
-21
-20
-15
-9
-6
-6
6
6
8
6
7
7
13
14
11
9
8
10
9
15
15
20
32
33
35
40
47
53
58
56
46
26
12
-21
-51
-78
-92
-88
-72
-47
-19
4
21
29
33
32
27
33
32
25
22
23
18
8
6
1
8
10
12
16
13
6
-5
-3
-2
-2
3
10
15
17
23
24
19
15
9
2
-3
-4
-9
-9
-9
-10
-10
-13
-10
-13
-8
-3
-9
-6
-8
-6
-8
-12
-11
-5
-13
-27
-36
-44
-38
-32
-24
-28
-34
-48
-53
-50
-53
-54
-48
-42
-47
-51
-71
-95
-118
-139
-154
-165
-170
-166
-148
-119
-85
-53
-33
-19
-6
3
7
14
17
21
17
13
10
8
10
5
3
6
3
4
13
15
12
9
11
8
8
5
3
-6
-11
-14
-17
-18
-20
-22
-22
-20
-16
-14
-9
-5
-5
0
-2
1
1
5
10
9
11
11
12
14
16
17
19
20
21
22
21
21
25
31
29
26
28
31
26
33
41
44
37
23
4
-25
-50
-76
-96
-94
-77
-47
-14
12
32
39
42
38
32
28
30
29
25
28
27
30
30
29
27
29
30
27
18
16
14
13
11
0
-4
-4
-3
-6
-6
-9
-10
-11
-17
-19
-20
-25
-21
-20
-23
-18
-16
-13
-10
-5
-9
-10
-3
-4
1
1
1
0
6
9
10
9
17
15
28
29
28
27
21
22
17
16
10
7
11
7
8
3
-15
-33
-59
-90
-121
-146
-162
-152
-124
-89
-62
-38
-19
4
9
8
7
8
7
10
9
8
9
8
10
4
4
3
-1
1
-5
-10
-12
-9
0
3
-2
-4
-10
-8
-10
-7
-5
-4
-2
0
-9
-10
-12
-16
-21
-15
-17
-14
-8
-12
-12
-12
-12
-14
-7
-7
-4
2
-2
-3
2
2
3
4
-3
0
2
-4
-4
2
2
8
11
20
26
31
35
33
23
10
-9
-42
-76
-102
-105
-90
-60
-26
-2
17
26
32
38
38
34
30
30
27
25
27
24
25
21
15
16
9
6
2
-6
0
3
6
10
13
4
2
-10
-16
-21
-29
-31
-38
-35
-33
-32
-32
-37
-39
-39
-33
-21
-6
3
11
16
12
21
19
18
18
19
16
16
21
23
27
27
26
33
27
30
28
26
24
25
32
40
46
44
36
22
-1
-27
-56
-88
-109
-119
-109
-80
-55
-30
-14
-6
-4
-6
-7
-15
-14
-12
-10
-9
-6
-14
-16
-26
-36
-38
-43
-40
-25
-14
-11
-12
-9
-12
-11
-14
-13
-17
-17
-21
-29
-42
-49
-52
-54
-49
-48
-43
-40
-34
-27
-20
-27
-33
-38
-35
-34
-35
-26
-27
-26
-25
-23
-23
-20
-21
-19
-15
-10
-5
-7
-9
-6
-3
-10
-5
-4
4
9
17
18
16
3
-16
-37
-64
-88
-102
-95
-66
-37
-8
15
30
42
47
56
48
40
37
35
35
41
43
45
43
45
43
42
38
38
32
30
27
19
19
15
17
9
4
3
-2
-7
-5
-7
-7
-8
-17
-25
-35
-38
-35
-31
-28
-27
-30
-28
-31
-25
-24
-20
-16
-12
-12
-7
0
-1
2
2
2
3
6
7
9
10
10
5
4
2
0
5
11
25
26
18
7
-11
-25
-51
-75
-99
-114
-105
-89
-68
-44
-26
-12
-7
-12
-14
-13
-18
-21
-25
-27
-23
-26
-24
-24
-29
-18
-16
-19
-19
-22
-21
-18
-21
-25
-28
-35
